Time,Stress
  0.00,  0.98358000
  0.10,  0.98001013
  0.20,  0.97673631
  0.30,  0.97373024
  0.40,  0.97096637
  0.50,  0.96842162
  0.60,  0.96607519
  0.70,  0.96390825
  0.80,  0.96190384
  0.90,  0.96004662
  1.00,  0.95832275
  1.10,  0.95671972
  1.20,  0.95522625
  1.30,  0.95383215
  1.40,  0.95252819
  1.50,  0.95130607
  1.60,  0.95015828
  1.70,  0.94907802
  1.80,  0.94805916
  1.90,  0.94709618
  2.00,  0.94618405
  2.10,  0.94531827
  2.20,  0.94449474
  2.30,  0.94370977
  2.40,  0.94296001
  2.50,  0.94224246
  2.60,  0.94155438
  2.70,  0.94089330
  2.80,  0.94025698
  2.90,  0.93964342
  3.00,  0.93905077
  3.10,  0.93847740
  3.20,  0.93792178
  3.30,  0.93738258
  3.40,  0.93685857
  3.50,  0.93634862
  3.60,  0.93585172
  3.70,  0.93536698
  3.80,  0.93489354
  3.90,  0.93443066
  4.00,  0.93397766
  4.10,  0.93353392
  4.20,  0.93309886
  4.30,  0.93267197
  4.40,  0.93225279
  4.50,  0.93184089
  4.60,  0.93143588
  4.70,  0.93103741
  4.80,  0.93064514
  4.90,  0.93025880
  5.00,  0.92987810
  5.10,  0.92950280
  5.20,  0.92913268
  5.30,  0.92876751
  5.40,  0.92840712
  5.50,  0.92805132
  5.60,  0.92769995
  5.70,  0.92735286
  5.80,  0.92700992
  5.90,  0.92667099
  6.00,  0.92633595
  6.10,  0.92600470
  6.20,  0.92567713
  6.30,  0.92535314
  6.40,  0.92503265
  6.50,  0.92471557
  6.60,  0.92440181
  6.70,  0.92409132
  6.80,  0.92378402
  6.90,  0.92347983
  7.00,  0.92317870
  7.10,  0.92288058
  7.20,  0.92258540
  7.30,  0.92229310
  7.40,  0.92200365
  7.50,  0.92171699
  7.60,  0.92143307
  7.70,  0.92115185
  7.80,  0.92087329
  7.90,  0.92059734
  8.00,  0.92032397
  8.10,  0.92005314
  8.20,  0.91978481
  8.30,  0.91951894
  8.40,  0.91925550
  8.50,  0.91899446
  8.60,  0.91873578
  8.70,  0.91847943
  8.80,  0.91822538
  8.90,  0.91797360
  9.00,  0.91772406
  9.10,  0.91747673
  9.20,  0.91723158
  9.30,  0.91698859
  9.40,  0.91674773
  9.50,  0.91650897
  9.60,  0.91627228
  9.70,  0.91603764
  9.80,  0.91580503
  9.90,  0.91557442
 10.00,  0.91534578
 10.10,  0.91511910
 10.20,  0.91489434
 10.30,  0.91467149
 10.40,  0.91445053
 10.50,  0.91423142
 10.60,  0.91401415
 10.70,  0.91379870
 10.80,  0.91358505
 10.90,  0.91337317
 11.00,  0.91316304
 11.10,  0.91295465
 11.20,  0.91274797
 11.30,  0.91254298
 11.40,  0.91233967
 11.50,  0.91213801
 11.60,  0.91193799
 11.70,  0.91173959
 11.80,  0.91154278
 11.90,  0.91134755
 12.00,  0.91115388
 12.10,  0.91096176
 12.20,  0.91077116
 12.30,  0.91058208
 12.40,  0.91039448
 12.50,  0.91020836
 12.60,  0.91002369
 12.70,  0.90984047
 12.80,  0.90965867
 12.90,  0.90947829
 13.00,  0.90929929
 13.10,  0.90912167
 13.20,  0.90894541
 13.30,  0.90877050
 13.40,  0.90859692
 13.50,  0.90842466
 13.60,  0.90825370
 13.70,  0.90808402
 13.80,  0.90791562
 13.90,  0.90774847
 14.00,  0.90758257
 14.10,  0.90741790
 14.20,  0.90725444
 14.30,  0.90709219
 14.40,  0.90693113
 14.50,  0.90677124
 14.60,  0.90661252
 14.70,  0.90645494
 14.80,  0.90629851
 14.90,  0.90614320
 15.00,  0.90598900
 15.10,  0.90583590
 15.20,  0.90568389
 15.30,  0.90553295
 15.40,  0.90538308
 15.50,  0.90523426
 15.60,  0.90508648
 15.70,  0.90493973
 15.80,  0.90479400
 15.90,  0.90464928
 16.00,  0.90450555
 16.10,  0.90436280
 16.20,  0.90422103
 16.30,  0.90408022
 16.40,  0.90394037
 16.50,  0.90380146
 16.60,  0.90366348
 16.70,  0.90352642
 16.80,  0.90339028
 16.90,  0.90325503
 17.00,  0.90312068
 17.10,  0.90298721
 17.20,  0.90285462
 17.30,  0.90272289
 17.40,  0.90259201
 17.50,  0.90246198
 17.60,  0.90233279
 17.70,  0.90220442
 17.80,  0.90207687
 17.90,  0.90195013
 18.00,  0.90182419
 18.10,  0.90169904
 18.20,  0.90157468
 18.30,  0.90145109
 18.40,  0.90132827
 18.50,  0.90120621
 18.60,  0.90108490
 18.70,  0.90096433
 18.80,  0.90084450
 18.90,  0.90072539
 19.00,  0.90060701
 19.10,  0.90048934
 19.20,  0.90037237
 19.30,  0.90025610
 19.40,  0.90014052
 19.50,  0.90002562
 19.60,  0.89991140
 19.70,  0.89979784
 19.80,  0.89968495
 19.90,  0.89957271
 20.00,  0.89946112
 20.10,  0.89935017
 20.20,  0.89923985
 20.30,  0.89913017
 20.40,  0.89902110
 20.50,  0.89891265
 20.60,  0.89880481
 20.70,  0.89869757
 20.80,  0.89859092
 20.90,  0.89848487
 21.00,  0.89837940
 21.10,  0.89827451
 21.20,  0.89817019
 21.30,  0.89806643
 21.40,  0.89796324
 21.50,  0.89786060
 21.60,  0.89775851
 21.70,  0.89765697
 21.80,  0.89755596
 21.90,  0.89745549
 22.00,  0.89735554
 22.10,  0.89725611
 22.20,  0.89715721
 22.30,  0.89705881
 22.40,  0.89696092
 22.50,  0.89686353
 22.60,  0.89676664
 22.70,  0.89667024
 22.80,  0.89657432
 22.90,  0.89647889
 23.00,  0.89638394
 23.10,  0.89628945
 23.20,  0.89619544
 23.30,  0.89610189
 23.40,  0.89600879
 23.50,  0.89591615
 23.60,  0.89582397
 23.70,  0.89573222
 23.80,  0.89564092
 23.90,  0.89555005
 24.00,  0.89545962
 24.10,  0.89536961
 24.20,  0.89528003
 24.30,  0.89519087
 24.40,  0.89510213
 24.50,  0.89501379
 24.60,  0.89492587
 24.70,  0.89483835
 24.80,  0.89475123
 24.90,  0.89466450
 25.00,  0.89457817
 25.10,  0.89449223
 25.20,  0.89440667
 25.30,  0.89432150
 25.40,  0.89423670
 25.50,  0.89415228
 25.60,  0.89406823
 25.70,  0.89398455
 25.80,  0.89390123
 25.90,  0.89381828
 26.00,  0.89373568
 26.10,  0.89365343
 26.20,  0.89357154
 26.30,  0.89348999
 26.40,  0.89340879
 26.50,  0.89332793
 26.60,  0.89324741
 26.70,  0.89316722
 26.80,  0.89308737
 26.90,  0.89300784
 27.00,  0.89292865
 27.10,  0.89284977
 27.20,  0.89277122
 27.30,  0.89269298
 27.40,  0.89261506
 27.50,  0.89253745
 27.60,  0.89246015
 27.70,  0.89238315
 27.80,  0.89230646
 27.90,  0.89223008
 28.00,  0.89215398
 28.10,  0.89207819
 28.20,  0.89200269
 28.30,  0.89192748
 28.40,  0.89185255
 28.50,  0.89177792
 28.60,  0.89170356
 28.70,  0.89162949
 28.80,  0.89155570
 28.90,  0.89148218
 29.00,  0.89140893
 29.10,  0.89133596
 29.20,  0.89126326
 29.30,  0.89119082
 29.40,  0.89111865
 29.50,  0.89104674
 29.60,  0.89097509
 29.70,  0.89090369
 29.80,  0.89083256
 29.90,  0.89076167
 30.00,  0.89069104
 30.10,  0.89062066
 30.20,  0.89055053
 30.30,  0.89048064
 30.40,  0.89041099
 30.50,  0.89034159
 30.60,  0.89027242
 30.70,  0.89020349
 30.80,  0.89013480
 30.90,  0.89006635
 31.00,  0.88999812
 31.10,  0.88993012
 31.20,  0.88986236
 31.30,  0.88979482
 31.40,  0.88972750
 31.50,  0.88966041
 31.60,  0.88959353
 31.70,  0.88952688
 31.80,  0.88946045
 31.90,  0.88939423
 32.00,  0.88932822
 32.10,  0.88926243
 32.20,  0.88919685
 32.30,  0.88913148
 32.40,  0.88906631
 32.50,  0.88900136
 32.60,  0.88893660
 32.70,  0.88887205
 32.80,  0.88880771
 32.90,  0.88874356
 33.00,  0.88867961
 33.10,  0.88861586
 33.20,  0.88855230
 33.30,  0.88848894
 33.40,  0.88842577
 33.50,  0.88836279
 33.60,  0.88830001
 33.70,  0.88823741
 33.80,  0.88817500
 33.90,  0.88811277
 34.00,  0.88805073
 34.10,  0.88798887
 34.20,  0.88792720
 34.30,  0.88786570
 34.40,  0.88780439
 34.50,  0.88774325
 34.60,  0.88768229
 34.70,  0.88762150
 34.80,  0.88756089
 34.90,  0.88750046
 35.00,  0.88744019
 35.10,  0.88738010
 35.20,  0.88732018
 35.30,  0.88726042
 35.40,  0.88720083
 35.50,  0.88714141
 35.60,  0.88708215
 35.70,  0.88702306
 35.80,  0.88696413
 35.90,  0.88690537
 36.00,  0.88684676
 36.10,  0.88678831
 36.20,  0.88673002
 36.30,  0.88667189
 36.40,  0.88661392
 36.50,  0.88655610
 36.60,  0.88649844
 36.70,  0.88644093
 36.80,  0.88638357
 36.90,  0.88632637
 37.00,  0.88626932
 37.10,  0.88621241
 37.20,  0.88615566
 37.30,  0.88609905
 37.40,  0.88604259
 37.50,  0.88598627
 37.60,  0.88593010
 37.70,  0.88587408
 37.80,  0.88581820
 37.90,  0.88576246
 38.00,  0.88570686
 38.10,  0.88565141
 38.20,  0.88559609
 38.30,  0.88554092
 38.40,  0.88548588
 38.50,  0.88543098
 38.60,  0.88537621
 38.70,  0.88532158
 38.80,  0.88526709
 38.90,  0.88521273
 39.00,  0.88515851
 39.10,  0.88510442
 39.20,  0.88505046
 39.30,  0.88499663
 39.40,  0.88494293
 39.50,  0.88488936
 39.60,  0.88483592
 39.70,  0.88478261
 39.80,  0.88472943
 39.90,  0.88467637
 40.00,  0.88462344
 40.10,  0.88457064
 40.20,  0.88451796
 40.30,  0.88446540
 40.40,  0.88441297
 40.50,  0.88436066
 40.60,  0.88430848
 40.70,  0.88425641
 40.80,  0.88420447
 40.90,  0.88415264
 41.00,  0.88410094
 41.10,  0.88404935
 41.20,  0.88399789
 41.30,  0.88394654
 41.40,  0.88389531
 41.50,  0.88384419
 41.60,  0.88379319
 41.70,  0.88374231
 41.80,  0.88369154
 41.90,  0.88364088
 42.00,  0.88359034
 42.10,  0.88353992
 42.20,  0.88348960
 42.30,  0.88343940
 42.40,  0.88338930
 42.50,  0.88333932
 42.60,  0.88328945
 42.70,  0.88323969
 42.80,  0.88319004
 42.90,  0.88314050
 43.00,  0.88309106
 43.10,  0.88304174
 43.20,  0.88299252
 43.30,  0.88294340
 43.40,  0.88289440
 43.50,  0.88284550
 43.60,  0.88279670
 43.70,  0.88274801
 43.80,  0.88269942
 43.90,  0.88265094
 44.00,  0.88260256
 44.10,  0.88255429
 44.20,  0.88250611
 44.30,  0.88245804
 44.40,  0.88241007
 44.50,  0.88236220
 44.60,  0.88231443
 44.70,  0.88226676
 44.80,  0.88221919
 44.90,  0.88217172
 45.00,  0.88212435
 45.10,  0.88207708
 45.20,  0.88202990
 45.30,  0.88198283
 45.40,  0.88193585
 45.50,  0.88188896
 45.60,  0.88184218
 45.70,  0.88179549
 45.80,  0.88174889
 45.90,  0.88170239
 46.00,  0.88165599
 46.10,  0.88160968
 46.20,  0.88156346
 46.30,  0.88151734
 46.40,  0.88147131
 46.50,  0.88142537
 46.60,  0.88137953
 46.70,  0.88133378
 46.80,  0.88128812
 46.90,  0.88124255
 47.00,  0.88119707
 47.10,  0.88115168
 47.20,  0.88110639
 47.30,  0.88106118
 47.40,  0.88101606
 47.50,  0.88097103
 47.60,  0.88092610
 47.70,  0.88088125
 47.80,  0.88083648
 47.90,  0.88079181
 48.00,  0.88074723
 48.10,  0.88070273
 48.20,  0.88065832
 48.30,  0.88061399
 48.40,  0.88056975
 48.50,  0.88052560
 48.60,  0.88048153
 48.70,  0.88043755
 48.80,  0.88039366
 48.90,  0.88034984
 49.00,  0.88030612
 49.10,  0.88026248
 49.20,  0.88021892
 49.30,  0.88017544
 49.40,  0.88013205
 49.50,  0.88008874
 49.60,  0.88004552
 49.70,  0.88000237
 49.80,  0.87995931
 49.90,  0.87991633
 50.00,  0.87987344
 50.10,  0.87983062
 50.20,  0.87978789
 50.30,  0.87974523
 50.40,  0.87970266
 50.50,  0.87966016
 50.60,  0.87961775
 50.70,  0.87957542
 50.80,  0.87953316
 50.90,  0.87949099
 51.00,  0.87944889
 51.10,  0.87940688
 51.20,  0.87936494
 51.30,  0.87932308
 51.40,  0.87928130
 51.50,  0.87923959
 51.60,  0.87919797
 51.70,  0.87915642
 51.80,  0.87911494
 51.90,  0.87907355
 52.00,  0.87903223
 52.10,  0.87899099
 52.20,  0.87894982
 52.30,  0.87890873
 52.40,  0.87886771
 52.50,  0.87882677
 52.60,  0.87878591
 52.70,  0.87874512
 52.80,  0.87870440
 52.90,  0.87866376
 53.00,  0.87862319
 53.10,  0.87858270
 53.20,  0.87854228
 53.30,  0.87850194
 53.40,  0.87846167
 53.50,  0.87842147
 53.60,  0.87838134
 53.70,  0.87834129
 53.80,  0.87830131
 53.90,  0.87826140
 54.00,  0.87822156
 54.10,  0.87818180
 54.20,  0.87814211
 54.30,  0.87810249
 54.40,  0.87806294
 54.50,  0.87802346
 54.60,  0.87798405
 54.70,  0.87794471
 54.80,  0.87790545
 54.90,  0.87786625
 55.00,  0.87782713
 55.10,  0.87778807
 55.20,  0.87774908
 55.30,  0.87771017
 55.40,  0.87767132
 55.50,  0.87763254
 55.60,  0.87759383
 55.70,  0.87755519
 55.80,  0.87751662
 55.90,  0.87747812
 56.00,  0.87743969
 56.10,  0.87740132
 56.20,  0.87736302
 56.30,  0.87732479
 56.40,  0.87728663
 56.50,  0.87724853
 56.60,  0.87721050
 56.70,  0.87717254
 56.80,  0.87713464
 56.90,  0.87709682
 57.00,  0.87705905
 57.10,  0.87702136
 57.20,  0.87698373
 57.30,  0.87694617
 57.40,  0.87690867
 57.50,  0.87687124
 57.60,  0.87683387
 57.70,  0.87679657
 57.80,  0.87675934
 57.90,  0.87672217
 58.00,  0.87668506
 58.10,  0.87664802
 58.20,  0.87661105
 58.30,  0.87657413
 58.40,  0.87653729
 58.50,  0.87650050
 58.60,  0.87646378
 58.70,  0.87642713
 58.80,  0.87639054
 58.90,  0.87635401
 59.00,  0.87631754
 59.10,  0.87628114
 59.20,  0.87624480
 59.30,  0.87620853
 59.40,  0.87617231
 59.50,  0.87613616
 59.60,  0.87610007
 59.70,  0.87606405
 59.80,  0.87602809
 59.90,  0.87599218
 60.00,  0.87595634
 60.10,  0.87592057
 60.20,  0.87588485
 60.30,  0.87584919
 60.40,  0.87581360
 60.50,  0.87577807
 60.60,  0.87574260
 60.70,  0.87570719
 60.80,  0.87567184
 60.90,  0.87563655
 61.00,  0.87560132
 61.10,  0.87556615
 61.20,  0.87553104
 61.30,  0.87549599
 61.40,  0.87546101
 61.50,  0.87542608
 61.60,  0.87539121
 61.70,  0.87535640
 61.80,  0.87532165
 61.90,  0.87528696
 62.00,  0.87525233
 62.10,  0.87521776
 62.20,  0.87518324
 62.30,  0.87514879
 62.40,  0.87511439
 62.50,  0.87508006
 62.60,  0.87504578
 62.70,  0.87501156
 62.80,  0.87497739
 62.90,  0.87494329
 63.00,  0.87490924
 63.10,  0.87487525
 63.20,  0.87484132
 63.30,  0.87480745
 63.40,  0.87477363
 63.50,  0.87473987
 63.60,  0.87470617
 63.70,  0.87467253
 63.80,  0.87463894
 63.90,  0.87460541
 64.00,  0.87457193
 64.10,  0.87453851
 64.20,  0.87450515
 64.30,  0.87447185
 64.40,  0.87443860
 64.50,  0.87440541
 64.60,  0.87437227
 64.70,  0.87433919
 64.80,  0.87430616
 64.90,  0.87427319
 65.00,  0.87424028
 65.10,  0.87420742
 65.20,  0.87417462
 65.30,  0.87414187
 65.40,  0.87410918
 65.50,  0.87407654
 65.60,  0.87404396
 65.70,  0.87401143
 65.80,  0.87397896
 65.90,  0.87394654
 66.00,  0.87391417
 66.10,  0.87388186
 66.20,  0.87384960
 66.30,  0.87381740
 66.40,  0.87378525
 66.50,  0.87375316
 66.60,  0.87372112
 66.70,  0.87368913
 66.80,  0.87365720
 66.90,  0.87362532
 67.00,  0.87359349
 67.10,  0.87356172
 67.20,  0.87353000
 67.30,  0.87349833
 67.40,  0.87346672
 67.50,  0.87343516
 67.60,  0.87340365
 67.70,  0.87337219
 67.80,  0.87334079
 67.90,  0.87330944
 68.00,  0.87327814
 68.10,  0.87324689
 68.20,  0.87321570
 68.30,  0.87318456
 68.40,  0.87315347
 68.50,  0.87312243
 68.60,  0.87309144
 68.70,  0.87306051
 68.80,  0.87302962
 68.90,  0.87299879
 69.00,  0.87296801
 69.10,  0.87293728
 69.20,  0.87290660
 69.30,  0.87287597
 69.40,  0.87284540
 69.50,  0.87281487
 69.60,  0.87278440
 69.70,  0.87275397
 69.80,  0.87272360
 69.90,  0.87269328
 70.00,  0.87266300
 70.10,  0.87263278
 70.20,  0.87260261
 70.30,  0.87257249
 70.40,  0.87254241
 70.50,  0.87251239
 70.60,  0.87248242
 70.70,  0.87245250
 70.80,  0.87242262
 70.90,  0.87239280
 71.00,  0.87236303
 71.10,  0.87233330
 71.20,  0.87230363
 71.30,  0.87227400
 71.40,  0.87224442
 71.50,  0.87221489
 71.60,  0.87218541
 71.70,  0.87215598
 71.80,  0.87212660
 71.90,  0.87209727
 72.00,  0.87206798
 72.10,  0.87203875
 72.20,  0.87200956
 72.30,  0.87198042
 72.40,  0.87195133
 72.50,  0.87192228
 72.60,  0.87189329
 72.70,  0.87186434
 72.80,  0.87183544
 72.90,  0.87180659
 73.00,  0.87177779
 73.10,  0.87174903
 73.20,  0.87172032
 73.30,  0.87169166
 73.40,  0.87166305
 73.50,  0.87163448
 73.60,  0.87160596
 73.70,  0.87157749
 73.80,  0.87154906
 73.90,  0.87152068
 74.00,  0.87149235
 74.10,  0.87146406
 74.20,  0.87143582
 74.30,  0.87140763
 74.40,  0.87137949
 74.50,  0.87135139
 74.60,  0.87132333
 74.70,  0.87129533
 74.80,  0.87126737
 74.90,  0.87123945
 75.00,  0.87121158
 75.10,  0.87118376
 75.20,  0.87115598
 75.30,  0.87112825
 75.40,  0.87110057
 75.50,  0.87107293
 75.60,  0.87104533
 75.70,  0.87101778
 75.80,  0.87099028
 75.90,  0.87096282
 76.00,  0.87093541
 76.10,  0.87090804
 76.20,  0.87088072
 76.30,  0.87085344
 76.40,  0.87082621
 76.50,  0.87079902
 76.60,  0.87077188
 76.70,  0.87074478
 76.80,  0.87071772
 76.90,  0.87069071
 77.00,  0.87066375
 77.10,  0.87063683
 77.20,  0.87060995
 77.30,  0.87058312
 77.40,  0.87055633
 77.50,  0.87052958
 77.60,  0.87050288
 77.70,  0.87047623
 77.80,  0.87044961
 77.90,  0.87042304
 78.00,  0.87039652
 78.10,  0.87037004
 78.20,  0.87034360
 78.30,  0.87031720
 78.40,  0.87029085
 78.50,  0.87026454
 78.60,  0.87023827
 78.70,  0.87021205
 78.80,  0.87018587
 78.90,  0.87015974
 79.00,  0.87013364
 79.10,  0.87010759
 79.20,  0.87008158
 79.30,  0.87005562
 79.40,  0.87002970
 79.50,  0.87000382
 79.60,  0.86997798
 79.70,  0.86995218
 79.80,  0.86992643
 79.90,  0.86990072
 80.00,  0.86987505
 80.10,  0.86984942
 80.20,  0.86982384
 80.30,  0.86979830
 80.40,  0.86977280
 80.50,  0.86974734
 80.60,  0.86972192
 80.70,  0.86969654
 80.80,  0.86967121
 80.90,  0.86964592
 81.00,  0.86962067
 81.10,  0.86959546
 81.20,  0.86957029
 81.30,  0.86954516
 81.40,  0.86952007
 81.50,  0.86949503
 81.60,  0.86947003
 81.70,  0.86944506
 81.80,  0.86942014
 81.90,  0.86939526
 82.00,  0.86937042
 82.10,  0.86934562
 82.20,  0.86932086
 82.30,  0.86929614
 82.40,  0.86927146
 82.50,  0.86924682
 82.60,  0.86922223
 82.70,  0.86919767
 82.80,  0.86917315
 82.90,  0.86914868
 83.00,  0.86912424
 83.10,  0.86909984
 83.20,  0.86907549
 83.30,  0.86905117
 83.40,  0.86902689
 83.50,  0.86900265
 83.60,  0.86897845
 83.70,  0.86895430
 83.80,  0.86893018
 83.90,  0.86890610
 84.00,  0.86888206
 84.10,  0.86885806
 84.20,  0.86883410
 84.30,  0.86881017
 84.40,  0.86878629
 84.50,  0.86876245
 84.60,  0.86873864
 84.70,  0.86871487
 84.80,  0.86869115
 84.90,  0.86866746
 85.00,  0.86864381
 85.10,  0.86862020
 85.20,  0.86859663
 85.30,  0.86857309
 85.40,  0.86854960
 85.50,  0.86852614
 85.60,  0.86850272
 85.70,  0.86847934
 85.80,  0.86845600
 85.90,  0.86843269
 86.00,  0.86840943
 86.10,  0.86838620
 86.20,  0.86836301
 86.30,  0.86833986
 86.40,  0.86831674
 86.50,  0.86829366
 86.60,  0.86827063
 86.70,  0.86824762
 86.80,  0.86822466
 86.90,  0.86820173
 87.00,  0.86817885
 87.10,  0.86815599
 87.20,  0.86813318
 87.30,  0.86811040
 87.40,  0.86808766
 87.50,  0.86806496
 87.60,  0.86804230
 87.70,  0.86801967
 87.80,  0.86799708
 87.90,  0.86797452
 88.00,  0.86795200
 88.10,  0.86792952
 88.20,  0.86790708
 88.30,  0.86788467
 88.40,  0.86786230
 88.50,  0.86783997
 88.60,  0.86781767
 88.70,  0.86779541
 88.80,  0.86777318
 88.90,  0.86775099
 89.00,  0.86772884
 89.10,  0.86770672
 89.20,  0.86768464
 89.30,  0.86766260
 89.40,  0.86764059
 89.50,  0.86761862
 89.60,  0.86759668
 89.70,  0.86757478
 89.80,  0.86755292
 89.90,  0.86753109
 90.00,  0.86750929
 90.10,  0.86748753
 90.20,  0.86746581
 90.30,  0.86744412
 90.40,  0.86742247
 90.50,  0.86740086
 90.60,  0.86737927
 90.70,  0.86735773
 90.80,  0.86733622
 90.90,  0.86731474
 91.00,  0.86729330
 91.10,  0.86727190
 91.20,  0.86725053
 91.30,  0.86722919
 91.40,  0.86720789
 91.50,  0.86718662
 91.60,  0.86716539
 91.70,  0.86714419
 91.80,  0.86712303
 91.90,  0.86710190
 92.00,  0.86708081
 92.10,  0.86705975
 92.20,  0.86703873
 92.30,  0.86701774
 92.40,  0.86699678
 92.50,  0.86697586
 92.60,  0.86695497
 92.70,  0.86693412
 92.80,  0.86691330
 92.90,  0.86689251
 93.00,  0.86687176
 93.10,  0.86685104
 93.20,  0.86683036
 93.30,  0.86680971
 93.40,  0.86678909
 93.50,  0.86676851
 93.60,  0.86674796
 93.70,  0.86672744
 93.80,  0.86670696
 93.90,  0.86668651
 94.00,  0.86666609
 94.10,  0.86664571
 94.20,  0.86662536
 94.30,  0.86660504
 94.40,  0.86658476
 94.50,  0.86656451
 94.60,  0.86654429
 94.70,  0.86652411
 94.80,  0.86650396
 94.90,  0.86648384
 95.00,  0.86646375
 95.10,  0.86644370
 95.20,  0.86642368
 95.30,  0.86640369
 95.40,  0.86638374
 95.50,  0.86636382
 95.60,  0.86634393
 95.70,  0.86632407
 95.80,  0.86630425
 95.90,  0.86628445
 96.00,  0.86626469
 96.10,  0.86624496
 96.20,  0.86622527
 96.30,  0.86620560
 96.40,  0.86618597
 96.50,  0.86616637
 96.60,  0.86614681
 96.70,  0.86612727
 96.80,  0.86610777
 96.90,  0.86608829
 97.00,  0.86606885
 97.10,  0.86604944
 97.20,  0.86603007
 97.30,  0.86601072
 97.40,  0.86599141
 97.50,  0.86597212
 97.60,  0.86595287
 97.70,  0.86593365
 97.80,  0.86591446
 97.90,  0.86589531
 98.00,  0.86587618
 98.10,  0.86585709
 98.20,  0.86583802
 98.30,  0.86581899
 98.40,  0.86579999
 98.50,  0.86578102
 98.60,  0.86576208
 98.70,  0.86574317
 98.80,  0.86572429
 98.90,  0.86570544
 99.00,  0.86568663
 99.10,  0.86566784
 99.20,  0.86564908
 99.30,  0.86563036
 99.40,  0.86561167
 99.50,  0.86559300
 99.60,  0.86557437
 99.70,  0.86555577
 99.80,  0.86553719
