Time,Stress
  0.00,  4.41433000
  0.10,  4.40217015
  0.20,  4.39080149
  0.30,  4.38016146
  0.40,  4.37019256
  0.50,  4.36084196
  0.60,  4.35206112
  0.70,  4.34380545
  0.80,  4.33603395
  0.90,  4.32870896
  1.00,  4.32179585
  1.10,  4.31526282
  1.20,  4.30908063
  1.30,  4.30322240
  1.40,  4.29766342
  1.50,  4.29238100
  1.60,  4.28735424
  1.70,  4.28256396
  1.80,  4.27799250
  1.90,  4.27362365
  2.00,  4.26944247
  2.10,  4.26543525
  2.20,  4.26158936
  2.30,  4.25789319
  2.40,  4.25433605
  2.50,  4.25090812
  2.60,  4.24760035
  2.70,  4.24440442
  2.80,  4.24131266
  2.90,  4.23831802
  3.00,  4.23541400
  3.10,  4.23259462
  3.20,  4.22985438
  3.30,  4.22718818
  3.40,  4.22459136
  3.50,  4.22205960
  3.60,  4.21958892
  3.70,  4.21717566
  3.80,  4.21481643
  3.90,  4.21250811
  4.00,  4.21024782
  4.10,  4.20803289
  4.20,  4.20586087
  4.30,  4.20372947
  4.40,  4.20163661
  4.50,  4.19958034
  4.60,  4.19755885
  4.70,  4.19557048
  4.80,  4.19361369
  4.90,  4.19168704
  5.00,  4.18978922
  5.10,  4.18791898
  5.20,  4.18607519
  5.30,  4.18425677
  5.40,  4.18246275
  5.50,  4.18069220
  5.60,  4.17894426
  5.70,  4.17721813
  5.80,  4.17551307
  5.90,  4.17382838
  6.00,  4.17216341
  6.10,  4.17051754
  6.20,  4.16889021
  6.30,  4.16728088
  6.40,  4.16568904
  6.50,  4.16411423
  6.60,  4.16255599
  6.70,  4.16101391
  6.80,  4.15948760
  6.90,  4.15797666
  7.00,  4.15648077
  7.10,  4.15499957
  7.20,  4.15353275
  7.30,  4.15208000
  7.40,  4.15064105
  7.50,  4.14921562
  7.60,  4.14780344
  7.70,  4.14640428
  7.80,  4.14501788
  7.90,  4.14364403
  8.00,  4.14228251
  8.10,  4.14093310
  8.20,  4.13959560
  8.30,  4.13826983
  8.40,  4.13695560
  8.50,  4.13565272
  8.60,  4.13436102
  8.70,  4.13308034
  8.80,  4.13181051
  8.90,  4.13055137
  9.00,  4.12930278
  9.10,  4.12806458
  9.20,  4.12683664
  9.30,  4.12561880
  9.40,  4.12441094
  9.50,  4.12321292
  9.60,  4.12202462
  9.70,  4.12084590
  9.80,  4.11967664
  9.90,  4.11851673
 10.00,  4.11736605
 10.10,  4.11622447
 10.20,  4.11509189
 10.30,  4.11396820
 10.40,  4.11285328
 10.50,  4.11174704
 10.60,  4.11064936
 10.70,  4.10956015
 10.80,  4.10847931
 10.90,  4.10740673
 11.00,  4.10634232
 11.10,  4.10528598
 11.20,  4.10423763
 11.30,  4.10319716
 11.40,  4.10216449
 11.50,  4.10113952
 11.60,  4.10012218
 11.70,  4.09911237
 11.80,  4.09811000
 11.90,  4.09711500
 12.00,  4.09612728
 12.10,  4.09514676
 12.20,  4.09417336
 12.30,  4.09320699
 12.40,  4.09224759
 12.50,  4.09129506
 12.60,  4.09034935
 12.70,  4.08941037
 12.80,  4.08847804
 12.90,  4.08755230
 13.00,  4.08663307
 13.10,  4.08572028
 13.20,  4.08481386
 13.30,  4.08391375
 13.40,  4.08301986
 13.50,  4.08213214
 13.60,  4.08125052
 13.70,  4.08037493
 13.80,  4.07950531
 13.90,  4.07864159
 14.00,  4.07778371
 14.10,  4.07693161
 14.20,  4.07608522
 14.30,  4.07524448
 14.40,  4.07440934
 14.50,  4.07357973
 14.60,  4.07275559
 14.70,  4.07193687
 14.80,  4.07112350
 14.90,  4.07031544
 15.00,  4.06951263
 15.10,  4.06871500
 15.20,  4.06792251
 15.30,  4.06713510
 15.40,  4.06635271
 15.50,  4.06557530
 15.60,  4.06480282
 15.70,  4.06403520
 15.80,  4.06327240
 15.90,  4.06251437
 16.00,  4.06176107
 16.10,  4.06101243
 16.20,  4.06026841
 16.30,  4.05952897
 16.40,  4.05879405
 16.50,  4.05806362
 16.60,  4.05733761
 16.70,  4.05661599
 16.80,  4.05589872
 16.90,  4.05518574
 17.00,  4.05447702
 17.10,  4.05377250
 17.20,  4.05307215
 17.30,  4.05237593
 17.40,  4.05168379
 17.50,  4.05099568
 17.60,  4.05031158
 17.70,  4.04963143
 17.80,  4.04895520
 17.90,  4.04828285
 18.00,  4.04761434
 18.10,  4.04694963
 18.20,  4.04628868
 18.30,  4.04563146
 18.40,  4.04497792
 18.50,  4.04432803
 18.60,  4.04368176
 18.70,  4.04303906
 18.80,  4.04239990
 18.90,  4.04176425
 19.00,  4.04113207
 19.10,  4.04050333
 19.20,  4.03987799
 19.30,  4.03925602
 19.40,  4.03863738
 19.50,  4.03802205
 19.60,  4.03740998
 19.70,  4.03680116
 19.80,  4.03619554
 19.90,  4.03559310
 20.00,  4.03499380
 20.10,  4.03439761
 20.20,  4.03380451
 20.30,  4.03321446
 20.40,  4.03262744
 20.50,  4.03204340
 20.60,  4.03146234
 20.70,  4.03088421
 20.80,  4.03030899
 20.90,  4.02973665
 21.00,  4.02916716
 21.10,  4.02860050
 21.20,  4.02803664
 21.30,  4.02747555
 21.40,  4.02691720
 21.50,  4.02636158
 21.60,  4.02580865
 21.70,  4.02525839
 21.80,  4.02471077
 21.90,  4.02416577
 22.00,  4.02362337
 22.10,  4.02308353
 22.20,  4.02254625
 22.30,  4.02201148
 22.40,  4.02147921
 22.50,  4.02094942
 22.60,  4.02042208
 22.70,  4.01989717
 22.80,  4.01937467
 22.90,  4.01885456
 23.00,  4.01833680
 23.10,  4.01782139
 23.20,  4.01730831
 23.30,  4.01679752
 23.40,  4.01628901
 23.50,  4.01578275
 23.60,  4.01527874
 23.70,  4.01477694
 23.80,  4.01427734
 23.90,  4.01377992
 24.00,  4.01328466
 24.10,  4.01279153
 24.20,  4.01230053
 24.30,  4.01181163
 24.40,  4.01132481
 24.50,  4.01084005
 24.60,  4.01035734
 24.70,  4.00987666
 24.80,  4.00939799
 24.90,  4.00892131
 25.00,  4.00844661
 25.10,  4.00797386
 25.20,  4.00750306
 25.30,  4.00703418
 25.40,  4.00656721
 25.50,  4.00610213
 25.60,  4.00563893
 25.70,  4.00517758
 25.80,  4.00471808
 25.90,  4.00426041
 26.00,  4.00380454
 26.10,  4.00335048
 26.20,  4.00289820
 26.30,  4.00244768
 26.40,  4.00199892
 26.50,  4.00155189
 26.60,  4.00110658
 26.70,  4.00066299
 26.80,  4.00022109
 26.90,  3.99978087
 27.00,  3.99934231
 27.10,  3.99890541
 27.20,  3.99847015
 27.30,  3.99803651
 27.40,  3.99760449
 27.50,  3.99717406
 27.60,  3.99674523
 27.70,  3.99631796
 27.80,  3.99589226
 27.90,  3.99546811
 28.00,  3.99504549
 28.10,  3.99462440
 28.20,  3.99420482
 28.30,  3.99378674
 28.40,  3.99337015
 28.50,  3.99295503
 28.60,  3.99254138
 28.70,  3.99212919
 28.80,  3.99171843
 28.90,  3.99130911
 29.00,  3.99090121
 29.10,  3.99049471
 29.20,  3.99008962
 29.30,  3.98968591
 29.40,  3.98928358
 29.50,  3.98888262
 29.60,  3.98848301
 29.70,  3.98808475
 29.80,  3.98768782
 29.90,  3.98729222
 30.00,  3.98689794
 30.10,  3.98650496
 30.20,  3.98611328
 30.30,  3.98572289
 30.40,  3.98533378
 30.50,  3.98494593
 30.60,  3.98455934
 30.70,  3.98417400
 30.80,  3.98378990
 30.90,  3.98340704
 31.00,  3.98302539
 31.10,  3.98264497
 31.20,  3.98226574
 31.30,  3.98188772
 31.40,  3.98151088
 31.50,  3.98113522
 31.60,  3.98076073
 31.70,  3.98038741
 31.80,  3.98001524
 31.90,  3.97964422
 32.00,  3.97927434
 32.10,  3.97890559
 32.20,  3.97853797
 32.30,  3.97817146
 32.40,  3.97780605
 32.50,  3.97744175
 32.60,  3.97707855
 32.70,  3.97671643
 32.80,  3.97635538
 32.90,  3.97599541
 33.00,  3.97563651
 33.10,  3.97527866
 33.20,  3.97492186
 33.30,  3.97456610
 33.40,  3.97421138
 33.50,  3.97385769
 33.60,  3.97350503
 33.70,  3.97315338
 33.80,  3.97280274
 33.90,  3.97245310
 34.00,  3.97210446
 34.10,  3.97175682
 34.20,  3.97141015
 34.30,  3.97106446
 34.40,  3.97071975
 34.50,  3.97037600
 34.60,  3.97003321
 34.70,  3.96969138
 34.80,  3.96935049
 34.90,  3.96901055
 35.00,  3.96867154
 35.10,  3.96833346
 35.20,  3.96799631
 35.30,  3.96766008
 35.40,  3.96732476
 35.50,  3.96699035
 35.60,  3.96665684
 35.70,  3.96632423
 35.80,  3.96599251
 35.90,  3.96566168
 36.00,  3.96533173
 36.10,  3.96500266
 36.20,  3.96467446
 36.30,  3.96434712
 36.40,  3.96402065
 36.50,  3.96369503
 36.60,  3.96337027
 36.70,  3.96304635
 36.80,  3.96272327
 36.90,  3.96240103
 37.00,  3.96207962
 37.10,  3.96175904
 37.20,  3.96143929
 37.30,  3.96112035
 37.40,  3.96080222
 37.50,  3.96048491
 37.60,  3.96016840
 37.70,  3.95985269
 37.80,  3.95953778
 37.90,  3.95922366
 38.00,  3.95891033
 38.10,  3.95859778
 38.20,  3.95828601
 38.30,  3.95797501
 38.40,  3.95766479
 38.50,  3.95735534
 38.60,  3.95704664
 38.70,  3.95673871
 38.80,  3.95643153
 38.90,  3.95612510
 39.00,  3.95581943
 39.10,  3.95551449
 39.20,  3.95521029
 39.30,  3.95490683
 39.40,  3.95460411
 39.50,  3.95430211
 39.60,  3.95400083
 39.70,  3.95370028
 39.80,  3.95340045
 39.90,  3.95310133
 40.00,  3.95280292
 40.10,  3.95250522
 40.20,  3.95220822
 40.30,  3.95191192
 40.40,  3.95161632
 40.50,  3.95132141
 40.60,  3.95102720
 40.70,  3.95073367
 40.80,  3.95044083
 40.90,  3.95014866
 41.00,  3.94985717
 41.10,  3.94956636
 41.20,  3.94927622
 41.30,  3.94898675
 41.40,  3.94869794
 41.50,  3.94840980
 41.60,  3.94812231
 41.70,  3.94783548
 41.80,  3.94754930
 41.90,  3.94726377
 42.00,  3.94697889
 42.10,  3.94669466
 42.20,  3.94641106
 42.30,  3.94612811
 42.40,  3.94584579
 42.50,  3.94556410
 42.60,  3.94528304
 42.70,  3.94500261
 42.80,  3.94472281
 42.90,  3.94444363
 43.00,  3.94416507
 43.10,  3.94388712
 43.20,  3.94360979
 43.30,  3.94333307
 43.40,  3.94305696
 43.50,  3.94278145
 43.60,  3.94250655
 43.70,  3.94223226
 43.80,  3.94195856
 43.90,  3.94168545
 44.00,  3.94141295
 44.10,  3.94114103
 44.20,  3.94086970
 44.30,  3.94059896
 44.40,  3.94032881
 44.50,  3.94005923
 44.60,  3.93979024
 44.70,  3.93952182
 44.80,  3.93925398
 44.90,  3.93898672
 45.00,  3.93872002
 45.10,  3.93845389
 45.20,  3.93818833
 45.30,  3.93792334
 45.40,  3.93765890
 45.50,  3.93739503
 45.60,  3.93713171
 45.70,  3.93686895
 45.80,  3.93660674
 45.90,  3.93634509
 46.00,  3.93608398
 46.10,  3.93582343
 46.20,  3.93556341
 46.30,  3.93530394
 46.40,  3.93504502
 46.50,  3.93478663
 46.60,  3.93452878
 46.70,  3.93427146
 46.80,  3.93401468
 46.90,  3.93375843
 47.00,  3.93350272
 47.10,  3.93324752
 47.20,  3.93299286
 47.30,  3.93273872
 47.40,  3.93248510
 47.50,  3.93223200
 47.60,  3.93197942
 47.70,  3.93172736
 47.80,  3.93147582
 47.90,  3.93122478
 48.00,  3.93097426
 48.10,  3.93072425
 48.20,  3.93047475
 48.30,  3.93022575
 48.40,  3.92997726
 48.50,  3.92972927
 48.60,  3.92948179
 48.70,  3.92923480
 48.80,  3.92898831
 48.90,  3.92874232
 49.00,  3.92849682
 49.10,  3.92825181
 49.20,  3.92800730
 49.30,  3.92776328
 49.40,  3.92751974
 49.50,  3.92727670
 49.60,  3.92703413
 49.70,  3.92679206
 49.80,  3.92655046
 49.90,  3.92630934
 50.00,  3.92606871
 50.10,  3.92582855
 50.20,  3.92558887
 50.30,  3.92534966
 50.40,  3.92511093
 50.50,  3.92487266
 50.60,  3.92463487
 50.70,  3.92439755
 50.80,  3.92416069
 50.90,  3.92392430
 51.00,  3.92368838
 51.10,  3.92345292
 51.20,  3.92321792
 51.30,  3.92298338
 51.40,  3.92274930
 51.50,  3.92251567
 51.60,  3.92228251
 51.70,  3.92204980
 51.80,  3.92181754
 51.90,  3.92158573
 52.00,  3.92135438
 52.10,  3.92112347
 52.20,  3.92089302
 52.30,  3.92066301
 52.40,  3.92043345
 52.50,  3.92020433
 52.60,  3.91997565
 52.70,  3.91974742
 52.80,  3.91951963
 52.90,  3.91929227
 53.00,  3.91906536
 53.10,  3.91883888
 53.20,  3.91861284
 53.30,  3.91838723
 53.40,  3.91816206
 53.50,  3.91793731
 53.60,  3.91771300
 53.70,  3.91748912
 53.80,  3.91726567
 53.90,  3.91704264
 54.00,  3.91682005
 54.10,  3.91659787
 54.20,  3.91637612
 54.30,  3.91615480
 54.40,  3.91593389
 54.50,  3.91571341
 54.60,  3.91549334
 54.70,  3.91527369
 54.80,  3.91505446
 54.90,  3.91483565
 55.00,  3.91461725
 55.10,  3.91439927
 55.20,  3.91418170
 55.30,  3.91396454
 55.40,  3.91374779
 55.50,  3.91353145
 55.60,  3.91331552
 55.70,  3.91309999
 55.80,  3.91288488
 55.90,  3.91267017
 56.00,  3.91245586
 56.10,  3.91224196
 56.20,  3.91202845
 56.30,  3.91181535
 56.40,  3.91160265
 56.50,  3.91139035
 56.60,  3.91117845
 56.70,  3.91096695
 56.80,  3.91075584
 56.90,  3.91054513
 57.00,  3.91033481
 57.10,  3.91012488
 57.20,  3.90991535
 57.30,  3.90970621
 57.40,  3.90949745
 57.50,  3.90928909
 57.60,  3.90908112
 57.70,  3.90887353
 57.80,  3.90866634
 57.90,  3.90845952
 58.00,  3.90825309
 58.10,  3.90804705
 58.20,  3.90784139
 58.30,  3.90763611
 58.40,  3.90743121
 58.50,  3.90722669
 58.60,  3.90702255
 58.70,  3.90681879
 58.80,  3.90661541
 58.90,  3.90641240
 59.00,  3.90620977
 59.10,  3.90600751
 59.20,  3.90580563
 59.30,  3.90560412
 59.40,  3.90540299
 59.50,  3.90520222
 59.60,  3.90500183
 59.70,  3.90480180
 59.80,  3.90460214
 59.90,  3.90440285
 60.00,  3.90420393
 60.10,  3.90400538
 60.20,  3.90380719
 60.30,  3.90360936
 60.40,  3.90341190
 60.50,  3.90321480
 60.60,  3.90301806
 60.70,  3.90282169
 60.80,  3.90262567
 60.90,  3.90243002
 61.00,  3.90223472
 61.10,  3.90203978
 61.20,  3.90184520
 61.30,  3.90165098
 61.40,  3.90145711
 61.50,  3.90126359
 61.60,  3.90107043
 61.70,  3.90087762
 61.80,  3.90068517
 61.90,  3.90049307
 62.00,  3.90030131
 62.10,  3.90010991
 62.20,  3.89991886
 62.30,  3.89972815
 62.40,  3.89953780
 62.50,  3.89934779
 62.60,  3.89915812
 62.70,  3.89896881
 62.80,  3.89877983
 62.90,  3.89859121
 63.00,  3.89840292
 63.10,  3.89821498
 63.20,  3.89802738
 63.30,  3.89784012
 63.40,  3.89765320
 63.50,  3.89746662
 63.60,  3.89728038
 63.70,  3.89709448
 63.80,  3.89690891
 63.90,  3.89672368
 64.00,  3.89653879
 64.10,  3.89635423
 64.20,  3.89617001
 64.30,  3.89598612
 64.40,  3.89580257
 64.50,  3.89561934
 64.60,  3.89543645
 64.70,  3.89525389
 64.80,  3.89507166
 64.90,  3.89488977
 65.00,  3.89470819
 65.10,  3.89452695
 65.20,  3.89434604
 65.30,  3.89416545
 65.40,  3.89398519
 65.50,  3.89380525
 65.60,  3.89362564
 65.70,  3.89344636
 65.80,  3.89326739
 65.90,  3.89308875
 66.00,  3.89291044
 66.10,  3.89273244
 66.20,  3.89255477
 66.30,  3.89237741
 66.40,  3.89220038
 66.50,  3.89202366
 66.60,  3.89184726
 66.70,  3.89167118
 66.80,  3.89149542
 66.90,  3.89131998
 67.00,  3.89114484
 67.10,  3.89097003
 67.20,  3.89079553
 67.30,  3.89062134
 67.40,  3.89044747
 67.50,  3.89027391
 67.60,  3.89010066
 67.70,  3.88992772
 67.80,  3.88975509
 67.90,  3.88958277
 68.00,  3.88941077
 68.10,  3.88923907
 68.20,  3.88906768
 68.30,  3.88889659
 68.40,  3.88872582
 68.50,  3.88855535
 68.60,  3.88838519
 68.70,  3.88821533
 68.80,  3.88804577
 68.90,  3.88787652
 69.00,  3.88770758
 69.10,  3.88753893
 69.20,  3.88737059
 69.30,  3.88720255
 69.40,  3.88703481
 69.50,  3.88686737
 69.60,  3.88670023
 69.70,  3.88653339
 69.80,  3.88636685
 69.90,  3.88620061
 70.00,  3.88603466
 70.10,  3.88586901
 70.20,  3.88570366
 70.30,  3.88553860
 70.40,  3.88537384
 70.50,  3.88520937
 70.60,  3.88504520
 70.70,  3.88488132
 70.80,  3.88471773
 70.90,  3.88455444
 71.00,  3.88439144
 71.10,  3.88422872
 71.20,  3.88406630
 71.30,  3.88390417
 71.40,  3.88374233
 71.50,  3.88358078
 71.60,  3.88341951
 71.70,  3.88325853
 71.80,  3.88309784
 71.90,  3.88293744
 72.00,  3.88277732
 72.10,  3.88261749
 72.20,  3.88245795
 72.30,  3.88229868
 72.40,  3.88213971
 72.50,  3.88198101
 72.60,  3.88182260
 72.70,  3.88166447
 72.80,  3.88150662
 72.90,  3.88134906
 73.00,  3.88119177
 73.10,  3.88103477
 73.20,  3.88087804
 73.30,  3.88072159
 73.40,  3.88056542
 73.50,  3.88040953
 73.60,  3.88025392
 73.70,  3.88009859
 73.80,  3.87994353
 73.90,  3.87978874
 74.00,  3.87963423
 74.10,  3.87948000
 74.20,  3.87932604
 74.30,  3.87917236
 74.40,  3.87901895
 74.50,  3.87886581
 74.60,  3.87871294
 74.70,  3.87856035
 74.80,  3.87840802
 74.90,  3.87825597
 75.00,  3.87810419
 75.10,  3.87795268
 75.20,  3.87780143
 75.30,  3.87765046
 75.40,  3.87749975
 75.50,  3.87734931
 75.60,  3.87719914
 75.70,  3.87704924
 75.80,  3.87689960
 75.90,  3.87675023
 76.00,  3.87660112
 76.10,  3.87645228
 76.20,  3.87630370
 76.30,  3.87615538
 76.40,  3.87600733
 76.50,  3.87585954
 76.60,  3.87571202
 76.70,  3.87556475
 76.80,  3.87541775
 76.90,  3.87527101
 77.00,  3.87512452
 77.10,  3.87497830
 77.20,  3.87483234
 77.30,  3.87468664
 77.40,  3.87454119
 77.50,  3.87439600
 77.60,  3.87425107
 77.70,  3.87410640
 77.80,  3.87396198
 77.90,  3.87381782
 78.00,  3.87367392
 78.10,  3.87353027
 78.20,  3.87338687
 78.30,  3.87324373
 78.40,  3.87310084
 78.50,  3.87295821
 78.60,  3.87281583
 78.70,  3.87267370
 78.80,  3.87253182
 78.90,  3.87239020
 79.00,  3.87224882
 79.10,  3.87210770
 79.20,  3.87196682
 79.30,  3.87182620
 79.40,  3.87168582
 79.50,  3.87154569
 79.60,  3.87140581
 79.70,  3.87126618
 79.80,  3.87112680
 79.90,  3.87098766
 80.00,  3.87084877
 80.10,  3.87071012
 80.20,  3.87057172
 80.30,  3.87043357
 80.40,  3.87029566
 80.50,  3.87015799
 80.60,  3.87002057
 80.70,  3.86988339
 80.80,  3.86974645
 80.90,  3.86960976
 81.00,  3.86947330
 81.10,  3.86933709
 81.20,  3.86920112
 81.30,  3.86906539
 81.40,  3.86892990
 81.50,  3.86879465
 81.60,  3.86865964
 81.70,  3.86852487
 81.80,  3.86839034
 81.90,  3.86825604
 82.00,  3.86812198
 82.10,  3.86798816
 82.20,  3.86785458
 82.30,  3.86772123
 82.40,  3.86758812
 82.50,  3.86745524
 82.60,  3.86732260
 82.70,  3.86719019
 82.80,  3.86705802
 82.90,  3.86692608
 83.00,  3.86679437
 83.10,  3.86666290
 83.20,  3.86653165
 83.30,  3.86640064
 83.40,  3.86626987
 83.50,  3.86613932
 83.60,  3.86600900
 83.70,  3.86587892
 83.80,  3.86574906
 83.90,  3.86561943
 84.00,  3.86549004
 84.10,  3.86536087
 84.20,  3.86523193
 84.30,  3.86510321
 84.40,  3.86497473
 84.50,  3.86484647
 84.60,  3.86471844
 84.70,  3.86459063
 84.80,  3.86446305
 84.90,  3.86433569
 85.00,  3.86420856
 85.10,  3.86408166
 85.20,  3.86395498
 85.30,  3.86382852
 85.40,  3.86370229
 85.50,  3.86357627
 85.60,  3.86345049
 85.70,  3.86332492
 85.80,  3.86319957
 85.90,  3.86307445
 86.00,  3.86294955
 86.10,  3.86282487
 86.20,  3.86270040
 86.30,  3.86257616
 86.40,  3.86245214
 86.50,  3.86232833
 86.60,  3.86220475
 86.70,  3.86208138
 86.80,  3.86195823
 86.90,  3.86183530
 87.00,  3.86171258
 87.10,  3.86159008
 87.20,  3.86146780
 87.30,  3.86134573
 87.40,  3.86122388
 87.50,  3.86110225
 87.60,  3.86098083
 87.70,  3.86085962
 87.80,  3.86073862
 87.90,  3.86061784
 88.00,  3.86049728
 88.10,  3.86037692
 88.20,  3.86025678
 88.30,  3.86013685
 88.40,  3.86001713
 88.50,  3.85989763
 88.60,  3.85977833
 88.70,  3.85965925
 88.80,  3.85954037
 88.90,  3.85942170
 89.00,  3.85930325
 89.10,  3.85918500
 89.20,  3.85906696
 89.30,  3.85894913
 89.40,  3.85883151
 89.50,  3.85871409
 89.60,  3.85859688
 89.70,  3.85847988
 89.80,  3.85836309
 89.90,  3.85824650
 90.00,  3.85813011
 90.10,  3.85801394
 90.20,  3.85789796
 90.30,  3.85778219
 90.40,  3.85766663
 90.50,  3.85755127
 90.60,  3.85743611
 90.70,  3.85732116
 90.80,  3.85720640
 90.90,  3.85709185
 91.00,  3.85697751
 91.10,  3.85686336
 91.20,  3.85674942
 91.30,  3.85663567
 91.40,  3.85652213
 91.50,  3.85640879
 91.60,  3.85629564
 91.70,  3.85618270
 91.80,  3.85606996
 91.90,  3.85595741
 92.00,  3.85584506
 92.10,  3.85573292
 92.20,  3.85562096
 92.30,  3.85550921
 92.40,  3.85539765
 92.50,  3.85528629
 92.60,  3.85517513
 92.70,  3.85506416
 92.80,  3.85495339
 92.90,  3.85484281
 93.00,  3.85473243
 93.10,  3.85462224
 93.20,  3.85451225
 93.30,  3.85440245
 93.40,  3.85429284
 93.50,  3.85418343
 93.60,  3.85407421
 93.70,  3.85396518
 93.80,  3.85385635
 93.90,  3.85374770
 94.00,  3.85363925
 94.10,  3.85353099
 94.20,  3.85342292
 94.30,  3.85331504
 94.40,  3.85320735
 94.50,  3.85309985
 94.60,  3.85299254
 94.70,  3.85288542
 94.80,  3.85277849
 94.90,  3.85267174
 95.00,  3.85256519
 95.10,  3.85245882
 95.20,  3.85235264
 95.30,  3.85224664
 95.40,  3.85214084
 95.50,  3.85203522
 95.60,  3.85192978
 95.70,  3.85182453
 95.80,  3.85171947
 95.90,  3.85161459
 96.00,  3.85150990
 96.10,  3.85140539
 96.20,  3.85130107
 96.30,  3.85119692
 96.40,  3.85109297
 96.50,  3.85098919
 96.60,  3.85088560
 96.70,  3.85078219
 96.80,  3.85067897
 96.90,  3.85057592
 97.00,  3.85047306
 97.10,  3.85037038
 97.20,  3.85026788
 97.30,  3.85016556
 97.40,  3.85006342
 97.50,  3.84996146
 97.60,  3.84985968
 97.70,  3.84975807
 97.80,  3.84965665
 97.90,  3.84955541
 98.00,  3.84945434
 98.10,  3.84935346
 98.20,  3.84925275
 98.30,  3.84915221
 98.40,  3.84905186
 98.50,  3.84895168
 98.60,  3.84885168
 98.70,  3.84875185
 98.80,  3.84865220
 98.90,  3.84855273
 99.00,  3.84845343
 99.10,  3.84835431
 99.20,  3.84825536
 99.30,  3.84815658
 99.40,  3.84805798
 99.50,  3.84795955
 99.60,  3.84786130
 99.70,  3.84776322
 99.80,  3.84766531
