Time,Stress,Derivative,SecondDerivative
0,2.48348,,
5,2.32697,-0.03130199999999998,
10,2.26332,-0.012729999999999997,0.003714399999999997
15,2.21714,-0.009236000000000022,0.0006987999999999949
20,2.17357,-0.008714000000000065,0.0001043999999999913
25,2.07175,-0.020363999999999917,
30,2.02983,-0.008384000000000036,3.300000000000299E-05
35,2.00439,-0.005088000000000026,0.0006592000000000019
40,1.98413,-0.004051999999999989,0.00020720000000000737
45,1.96652,-0.003521999999999981,0.00010600000000000157
50,1.95086,-0.0031320000000000015,7.799999999999587E-05
55,1.93716,-0.002740000000000009,7.839999999999852E-05
60,1.92566,-0.002300000000000013,8.799999999999918E-05
65,1.91367,-0.002397999999999989,
70,1.90344,-0.0020459999999999923,2.540000000000207E-05
75,1.89427,-0.0018340000000000244,4.239999999999357E-05
80,1.88558,-0.0017379999999999729,1.9200000000010313E-05
85,1.87823,-0.0014699999999999934,5.359999999999588E-05
90,1.86984,-0.0016780000000000239,
95,1.86352,-0.0012639999999999763,2.0600000000001714E-05
100,1.8567,-0.0013640000000000097,
100.1,1.856563792,-0.0013620800000000088,
100.19999999999999,1.856427776,-0.0013601600000000078,
100.29999999999998,1.856291952,-0.0013582400000000069,
100.39999999999998,1.85615632,-0.001356320000000006,
100.49999999999997,1.85602088,-0.001354400000000005,
100.59999999999997,1.855885632,-0.001352480000000004,
100.69999999999996,1.855750576,-0.001350560000000003,
100.79999999999995,1.8556157119999999,-0.001348640000000002,
100.89999999999995,1.85548104,-0.0013467200000000011,
100.99999999999994,1.8553465599999999,-0.0013448000000000002,
101.09999999999994,1.855212272,-0.0013428799999999992,
101.19999999999993,1.855078176,-0.0013409599999999982,
101.29999999999993,1.854944272,-0.0013390399999999973,
101.39999999999992,1.85481056,-0.0013371199999999963,
101.49999999999991,1.8546770399999999,-0.0013351999999999954,
101.59999999999991,1.854543712,-0.0013332799999999944,
101.6999999999999,1.8544105759999998,-0.0013313599999999935,
101.7999999999999,1.8542776319999998,-0.0013294399999999925,
101.89999999999989,1.8541448799999998,-0.0013275199999999915,
101.99999999999989,1.8540123199999998,-0.0013255999999999906,
102.09999999999988,1.8538799519999998,-0.0013236799999999896,
102.19999999999987,1.8537477759999998,-0.0013217599999999887,
102.29999999999987,1.8536157919999998,-0.0013198399999999877,
102.39999999999986,1.853484,-0.0013179199999999868,
102.49999999999986,1.8533524,-0.0013159999999999858,
102.59999999999985,1.853220992,-0.0013140799999999848,
102.69999999999985,1.853089776,-0.0013121599999999839,
102.79999999999984,1.852958752,-0.001310239999999983,
102.89999999999984,1.85282792,-0.001308319999999982,
102.99999999999983,1.85269728,-0.001306399999999981,
103.09999999999982,1.852566832,-0.00130447999999998,
103.19999999999982,1.852436576,-0.001302559999999979,
103.29999999999981,1.852306512,-0.0013006399999999781,
103.3999999999998,1.85217664,-0.0012987199999999772,
103.4999999999998,1.85204696,-0.0012967999999999762,
103.5999999999998,1.851917472,-0.0012948799999999753,
103.69999999999979,1.8517881760000001,-0.0012929599999999743,
103.79999999999978,1.8516590720000001,-0.0012910399999999734,
103.89999999999978,1.85153016,-0.0012891199999999724,
103.99999999999977,1.85140144,-0.0012871999999999714,
104.09999999999977,1.851272912,-0.0012852799999999705,
104.19999999999976,1.851144576,-0.0012833599999999695,
104.29999999999976,1.851016432,-0.0012814399999999686,
104.39999999999975,1.85088848,-0.0012795199999999676,
104.49999999999974,1.85076072,-0.0012775999999999667,
104.59999999999974,1.8506331520000001,-0.0012756799999999657,
104.69999999999973,1.850505776,-0.0012737599999999647,
104.79999999999973,1.8503785920000002,-0.0012718399999999638,
104.89999999999972,1.8502516000000002,-0.0012699199999999628,
104.99999999999972,1.8501248000000001,-0.0012679999999999619,
105.09999999999971,1.8499981920000002,-0.001266079999999961,
105.1999999999997,1.849871776,-0.00126415999999996,
105.2999999999997,1.8497455520000001,-0.001262239999999959,
105.3999999999997,1.84961952,-0.001260319999999958,
105.49999999999969,1.8494936800000001,-0.001258399999999957,
105.59999999999968,1.849368032,-0.0012564799999999561,
105.69999999999968,1.8492425760000002,-0.0012545599999999552,
105.79999999999967,1.8491173120000002,-0.0012526399999999542,
105.89999999999966,1.8489922400000003,-0.0012507199999999532,
105.99999999999966,1.8488673600000003,-0.0012487999999999523,
106.09999999999965,1.8487426720000002,-0.0012468799999999513,
106.19999999999965,1.8486181760000002,-0.0012449599999999504,
106.29999999999964,1.8484938720000001,-0.0012430399999999494,
106.39999999999964,1.8483697600000002,-0.0012411199999999485,
106.49999999999963,1.8482458400000001,-0.0012391999999999475,
106.59999999999962,1.8481221120000002,-0.0012372799999999465,
106.69999999999962,1.8479985760000002,-0.0012353599999999456,
106.79999999999961,1.8478752320000003,-0.0012334399999999446,
106.89999999999961,1.8477520800000002,-0.0012315199999999437,
106.9999999999996,1.8476291200000003,-0.0012295999999999427,
107.0999999999996,1.8475063520000004,-0.0012276799999999418,
107.19999999999959,1.8473837760000003,-0.0012257599999999408,
107.29999999999959,1.8472613920000003,-0.0012238399999999398,
107.39999999999958,1.8471392000000002,-0.0012219199999999389,
107.49999999999957,1.8470172000000002,-0.001219999999999938,
107.59999999999957,1.8468953920000002,-0.001218079999999937,
107.69999999999956,1.8467737760000003,-0.001216159999999936,
107.79999999999956,1.8466523520000002,-0.001214239999999935,
107.89999999999955,1.8465311200000003,-0.001212319999999934,
107.99999999999955,1.8464100800000003,-0.0012103999999999331,
108.09999999999954,1.8462892320000004,-0.0012084799999999322,
108.19999999999953,1.8461685760000004,-0.0012065599999999312,
108.29999999999953,1.8460481120000003,-0.0012046399999999303,
108.39999999999952,1.8459278400000003,-0.0012027199999999293,
108.49999999999952,1.8458077600000002,-0.0012007999999999284,
108.59999999999951,1.8456878720000003,-0.0011988799999999274,
108.6999999999995,1.8455681760000002,-0.0011969599999999264,
108.7999999999995,1.8454486720000003,-0.0011950399999999255,
108.8999999999995,1.8453293600000003,-0.0011931199999999245,
108.99999999999949,1.8452102400000003,-0.0011911999999999236,
109.09999999999948,1.8450913120000003,-0.0011892799999999226,
109.19999999999948,1.8449725760000004,-0.0011873599999999217,
109.29999999999947,1.8448540320000004,-0.0011854399999999207,
109.39999999999947,1.8447356800000003,-0.0011835199999999197,
109.49999999999946,1.8446175200000003,-0.0011815999999999188,
109.59999999999945,1.8444995520000003,-0.0011796799999999178,
109.69999999999945,1.8443817760000003,-0.0011777599999999169,
109.79999999999944,1.8442641920000002,-0.001175839999999916,
109.89999999999944,1.8441468000000003,-0.001173919999999915,
109.99999999999943,1.8440296000000003,-0.001171999999999914,
110.09999999999943,1.8439125920000004,-0.001170079999999913,
110.19999999999942,1.8437957760000003,-0.001168159999999912,
110.29999999999941,1.8436791520000004,-0.0011662399999999111,
110.39999999999941,1.8435627200000004,-0.0011643199999999102,
110.4999999999994,1.8434464800000003,-0.0011623999999999092,
110.5999999999994,1.8433304320000004,-0.0011604799999999083,
110.69999999999939,1.8432145760000003,-0.0011585599999999073,
110.79999999999939,1.8430989120000003,-0.0011566399999999063,
110.89999999999938,1.8429834400000003,-0.0011547199999999054,
110.99999999999937,1.8428681600000003,-0.0011527999999999044,
111.09999999999937,1.8427530720000003,-0.0011508799999999035,
111.19999999999936,1.8426381760000003,-0.0011489599999999025,
111.29999999999936,1.8425234720000003,-0.0011470399999999015,
111.39999999999935,1.8424089600000004,-0.0011451199999999006,
111.49999999999935,1.8422946400000004,-0.0011431999999998996,
111.59999999999934,1.8421805120000005,-0.0011412799999998987,
111.69999999999933,1.8420665760000006,-0.0011393599999998977,
111.79999999999933,1.8419528320000005,-0.0011374399999998968,
111.89999999999932,1.8418392800000005,-0.0011355199999998958,
111.99999999999932,1.8417259200000005,-0.0011335999999998948,
112.09999999999931,1.8416127520000005,-0.0011316799999998939,
112.1999999999993,1.8414997760000005,-0.001129759999999893,
112.2999999999993,1.8413869920000006,-0.001127839999999892,
112.3999999999993,1.8412744000000005,-0.001125919999999891,
112.49999999999929,1.8411620000000006,-0.00112399999999989,
112.59999999999928,1.8410497920000006,-0.001122079999999889,
112.69999999999928,1.8409377760000007,-0.0011201599999998881,
112.79999999999927,1.8408259520000008,-0.0011182399999998872,
112.89999999999927,1.8407143200000007,-0.0011163199999998862,
112.99999999999926,1.8406028800000007,-0.0011143999999998853,
113.09999999999926,1.8404916320000007,-0.0011124799999998843,
113.19999999999925,1.8403805760000007,-0.0011105599999998834,
113.29999999999924,1.8402697120000007,-0.0011086399999998824,
113.39999999999924,1.8401590400000007,-0.0011067199999998814,
113.49999999999923,1.8400485600000007,-0.0011047999999998805,
113.59999999999923,1.8399382720000008,-0.0011028799999998795,
113.69999999999922,1.8398281760000008,-0.0011009599999998786,
113.79999999999922,1.839718272000001,-0.0010990399999998776,
113.89999999999921,1.839608560000001,-0.0010971199999998767,
113.9999999999992,1.8394990400000009,-0.0010951999999998757,
114.0999999999992,1.839389712000001,-0.0010932799999998747,
114.19999999999919,1.8392805760000008,-0.0010913599999998738,
114.29999999999919,1.8391716320000009,-0.0010894399999998728,
114.39999999999918,1.8390628800000008,-0.0010875199999998719,
114.49999999999918,1.838954320000001,-0.001085599999999871,
114.59999999999917,1.838845952000001,-0.00108367999999987,
114.69999999999916,1.838737776000001,-0.001081759999999869,
114.79999999999916,1.838629792000001,-0.001079839999999868,
114.89999999999915,1.838522000000001,-0.001077919999999867,
114.99999999999915,1.8384144000000011,-0.0010759999999998661,
115.09999999999914,1.838306992000001,-0.0010740799999998652,
115.19999999999914,1.838199776000001,-0.0010721599999998642,
115.29999999999913,1.838092752000001,-0.0010702399999998633,
115.39999999999912,1.837985920000001,-0.0010683199999998623,
115.49999999999912,1.837879280000001,-0.0010663999999998613,
115.59999999999911,1.837772832000001,-0.0010644799999998604,
115.69999999999911,1.837666576000001,-0.0010625599999998594,
115.7999999999991,1.8375605120000011,-0.0010606399999998585,
115.8999999999991,1.8374546400000011,-0.0010587199999998575,
115.99999999999909,1.8373489600000013,-0.0010567999999998566,
116.09999999999908,1.8372434720000013,-0.0010548799999998556,
116.19999999999908,1.8371381760000012,-0.0010529599999998546,
116.29999999999907,1.8370330720000012,-0.0010510399999998537,
116.39999999999907,1.8369281600000011,-0.0010491199999998527,
116.49999999999906,1.8368234400000012,-0.0010471999999998518,
116.59999999999906,1.8367189120000011,-0.0010452799999998508,
116.69999999999905,1.8366145760000012,-0.0010433599999998499,
116.79999999999905,1.8365104320000012,-0.001041439999999849,
116.89999999999904,1.8364064800000013,-0.001039519999999848,
116.99999999999903,1.8363027200000013,-0.001037599999999847,
117.09999999999903,1.8361991520000014,-0.001035679999999846,
117.19999999999902,1.8360957760000014,-0.001033759999999845,
117.29999999999902,1.8359925920000013,-0.001031839999999844,
117.39999999999901,1.8358896000000013,-0.0010299199999998431,
117.499999999999,1.8357868000000013,-0.0010279999999998422,
117.599999999999,1.8356841920000013,-0.0010260799999998412,
117.699999999999,1.8355817760000013,-0.0010241599999998403,
117.79999999999899,1.8354795520000013,-0.0010222399999998393,
117.89999999999898,1.8353775200000013,-0.0010203199999998384,
117.99999999999898,1.8352756800000014,-0.0010183999999998374,
118.09999999999897,1.8351740320000014,-0.0010164799999998364,
118.19999999999897,1.8350725760000015,-0.0010145599999998355,
118.29999999999896,1.8349713120000015,-0.0010126399999998345,
118.39999999999895,1.8348702400000014,-0.0010107199999998336,
118.49999999999895,1.8347693600000015,-0.0010087999999998326,
118.59999999999894,1.8346686720000014,-0.0010068799999998317,
118.69999999999894,1.8345681760000014,-0.0010049599999998307,
118.79999999999893,1.8344678720000014,-0.0010030399999998297,
118.89999999999893,1.8343677600000015,-0.0010011199999998288,
118.99999999999892,1.8342678400000014,-0.0009991999999998278,
119.09999999999891,1.8341681120000015,-0.0009972799999998269,
119.19999999999891,1.8340685760000015,-0.000995359999999826,
119.2999999999989,1.8339692320000016,-0.000993439999999825,
119.3999999999989,1.8338700800000016,-0.000991519999999824,
119.49999999999889,1.8337711200000015,-0.000989599999999823,
119.59999999999889,1.8336723520000016,-0.000987679999999822,
119.69999999999888,1.8335737760000015,-0.0009857599999998211,
119.79999999999887,1.8334753920000015,-0.0009838399999998202,
119.89999999999887,1.8333772000000015,-0.0009819199999998192,
119.99999999999886,1.8332792000000016,-0.0009799999999998183,
120.09999999999886,1.8331813920000015,-0.0009780799999998173,
120.19999999999885,1.8330837760000016,-0.0009761599999998162,
120.29999999999885,1.8329863520000016,-0.0009742399999998152,
120.39999999999884,1.8328891200000017,-0.0009723199999998141,
120.49999999999883,1.8327920800000017,-0.000970399999999813,
120.59999999999883,1.8326952320000018,-0.000968479999999812,
120.69999999999882,1.8325985760000019,-0.0009665599999998109,
120.79999999999882,1.8325021120000018,-0.0009646399999998098,
120.89999999999881,1.8324058400000018,-0.0009627199999998088,
120.9999999999988,1.8323097600000018,-0.0009607999999998077,
121.0999999999988,1.8322138720000019,-0.0009588799999998066,
121.1999999999988,1.8321181760000018,-0.0009569599999998056,
121.29999999999879,1.832022672000002,-0.0009550399999998045,
121.39999999999878,1.831927360000002,-0.0009531199999998034,
121.49999999999878,1.831832240000002,-0.0009511999999998024,
121.59999999999877,1.831737312000002,-0.0009492799999998013,
121.69999999999877,1.8316425760000021,-0.0009473599999998002,
121.79999999999876,1.8315480320000022,-0.0009454399999997992,
121.89999999999876,1.831453680000002,-0.0009435199999997981,
121.99999999999875,1.8313595200000021,-0.000941599999999797,
122.09999999999874,1.831265552000002,-0.000939679999999796,
122.19999999999874,1.8311717760000021,-0.0009377599999997949,
122.29999999999873,1.831078192000002,-0.0009358399999997939,
122.39999999999873,1.8309848000000022,-0.0009339199999997928,
122.49999999999872,1.8308916000000022,-0.0009319999999997917,
122.59999999999872,1.8307985920000023,-0.0009300799999997907,
122.69999999999871,1.8307057760000023,-0.0009281599999997896,
122.7999999999987,1.8306131520000024,-0.0009262399999997885,
122.8999999999987,1.8305207200000024,-0.0009243199999997875,
122.99999999999869,1.8304284800000024,-0.0009223999999997864,
123.09999999999869,1.8303364320000024,-0.0009204799999997853,
123.19999999999868,1.8302445760000023,-0.0009185599999997843,
123.29999999999868,1.8301529120000024,-0.0009166399999997832,
123.39999999999867,1.8300614400000024,-0.0009147199999997821,
123.49999999999866,1.8299701600000025,-0.0009127999999997811,
123.59999999999866,1.8298790720000024,-0.00091087999999978,
123.69999999999865,1.8297881760000025,-0.0009089599999997789,
123.79999999999865,1.8296974720000025,-0.0009070399999997779,
123.89999999999864,1.8296069600000027,-0.0009051199999997768,
123.99999999999864,1.8295166400000027,-0.0009031999999997757,
124.09999999999863,1.8294265120000026,-0.0009012799999997747,
124.19999999999862,1.8293365760000027,-0.0008993599999997736,
124.29999999999862,1.8292468320000026,-0.0008974399999997725,
124.39999999999861,1.8291572800000027,-0.0008955199999997715,
124.49999999999861,1.8290679200000026,-0.0008935999999997704,
124.5999999999986,1.8289787520000027,-0.0008916799999997693,
124.6999999999986,1.8288897760000027,-0.0008897599999997683,
124.79999999999859,1.8288009920000028,-0.0008878399999997672,
124.89999999999858,1.8287124000000028,-0.0008859199999997661,
124.99999999999858,1.828624000000003,-0.0008839999999997651,
125.09999999999857,1.828535792000003,-0.000882079999999764,
125.19999999999857,1.8284477760000029,-0.0008801599999997629,
125.29999999999856,1.828359952000003,-0.0008782399999997619,
125.39999999999856,1.8282723200000028,-0.0008763199999997608,
125.49999999999855,1.828184880000003,-0.0008743999999997597,
125.59999999999854,1.8280976320000029,-0.0008724799999997587,
125.69999999999854,1.828010576000003,-0.0008705599999997576,
125.79999999999853,1.827923712000003,-0.0008686399999997565,
125.89999999999853,1.827837040000003,-0.0008667199999997555,
125.99999999999852,1.827750560000003,-0.0008647999999997544,
126.09999999999852,1.8276642720000031,-0.0008628799999997533,
126.19999999999851,1.8275781760000032,-0.0008609599999997523,
126.2999999999985,1.827492272000003,-0.0008590399999997512,
126.3999999999985,1.8274065600000031,-0.0008571199999997502,
126.4999999999985,1.827321040000003,-0.0008551999999997491,
126.59999999999849,1.8272357120000031,-0.000853279999999748,
126.69999999999848,1.827150576000003,-0.000851359999999747,
126.79999999999848,1.8270656320000032,-0.0008494399999997459,
126.89999999999847,1.8269808800000031,-0.0008475199999997448,
126.99999999999847,1.8268963200000032,-0.0008455999999997438,
127.09999999999846,1.8268119520000032,-0.0008436799999997427,
127.19999999999845,1.8267277760000034,-0.0008417599999997416,
127.29999999999845,1.8266437920000034,-0.0008398399999997406,
127.39999999999844,1.8265600000000033,-0.0008379199999997395,
127.49999999999844,1.8264764000000033,-0.0008359999999997384,
127.59999999999843,1.8263929920000033,-0.0008340799999997374,
127.69999999999843,1.8263097760000033,-0.0008321599999997363,
127.79999999999842,1.8262267520000033,-0.0008302399999997352,
127.89999999999841,1.8261439200000034,-0.0008283199999997342,
127.99999999999841,1.8260612800000033,-0.0008263999999997331,
128.0999999999984,1.8259788320000034,-0.000824479999999732,
128.1999999999984,1.8258965760000034,-0.000822559999999731,
128.2999999999984,1.8258145120000036,-0.0008206399999997299,
128.39999999999839,1.8257326400000036,-0.0008187199999997288,
128.49999999999838,1.8256509600000037,-0.0008167999999997278,
128.59999999999837,1.8255694720000037,-0.0008148799999997267,
128.69999999999837,1.8254881760000037,-0.0008129599999997256,
128.79999999999836,1.8254070720000037,-0.0008110399999997246,
128.89999999999836,1.8253261600000037,-0.0008091199999997235,
128.99999999999835,1.8252454400000038,-0.0008071999999997224,
129.09999999999835,1.8251649120000037,-0.0008052799999997214,
129.19999999999834,1.8250845760000038,-0.0008033599999997203,
129.29999999999833,1.8250044320000038,-0.0008014399999997192,
129.39999999999833,1.824924480000004,-0.0007995199999997182,
129.49999999999832,1.824844720000004,-0.0007975999999997171,
129.59999999999832,1.824765152000004,-0.000795679999999716,
129.6999999999983,1.8246857760000041,-0.000793759999999715,
129.7999999999983,1.824606592000004,-0.0007918399999997139,
129.8999999999983,1.8245276000000041,-0.0007899199999997128,
129.9999999999983,1.824448800000004,-0.0007879999999997118,
130.0999999999983,1.8243701920000042,-0.0007860799999997107,
130.19999999999828,1.8242917760000041,-0.0007841599999997097,
130.29999999999828,1.8242135520000042,-0.0007822399999997086,
130.39999999999827,1.8241355200000042,-0.0007803199999997075,
130.49999999999827,1.8240576800000043,-0.0007783999999997065,
130.59999999999826,1.8239800320000044,-0.0007764799999997054,
130.69999999999825,1.8239025760000045,-0.0007745599999997043,
130.79999999999825,1.8238253120000045,-0.0007726399999997033,
130.89999999999824,1.8237482400000045,-0.0007707199999997022,
130.99999999999824,1.8236713600000045,-0.0007687999999997011,
131.09999999999823,1.8235946720000045,-0.0007668799999997001,
131.19999999999823,1.8235181760000045,-0.000764959999999699,
