Time,Stress,Time,Extrapolated Stress
0,4.10703
0.1,4.09552,,
0.2,4.08415,,
0.3,4.07556,,
0.4,4.06787,,
0.5,4.06107,,
0.6,4.05471,,
0.7,4.04901,,
0.8,4.04391,,
0.9,4.03882,,
1,4.03421,,
1.1,4.03009,,
1.2,4.0261,,
1.3,4.02222,,
1.4,4.01855,,
1.5,4.01525,,
1.6,4.01216,,
1.8,4.00593,,
2,4.00014,,
2.3,3.99191,,
2.4,3.98948,,
2.6,3.98472,,
2.7,3.98246,,
2.9,3.97788,,
3,3.97576,,
3.1,3.97374,,
3.2,3.97178,,
3.3,3.96989,,
3.5,3.9659,,
3.8,3.96054,,
4,3.95674,,
4.1,3.95525,,
4.3,3.95197,,
4.4,3.95049,,
4.6,3.94742,,
4.8,3.94449,,
5,3.94168,,
5.2,3.93893,,
5.4,3.93606,,
5.5,3.93492,,
5.9,3.92975,,
6.2,3.92605,,
6.4,3.92371,,
6.6,3.9216,,
6.8,3.91929,,
7,3.91701,,
7.2,3.91497,,
7.3,3.91401,,
7.6,3.91086,,
7.8,3.90879,,
7.9,3.90797,,
8.1,3.9061,,
8.3,3.90427,,
8.4,3.90341,,
8.6,3.90133,,
8.7,3.90045,,
8.8,3.89981,,
9.2,3.89608,,
9.5,3.89348,,
9.7,3.89194,,
9.9,3.89042,,
10.1,3.88876,,
10.3,3.88722,,
10.5,3.88564,,
10.8,3.88335,,
11.1,3.88121,,
11.2,3.88065,,
11.4,3.87916,,
11.7,3.87709,,
12.3,3.87315,,
12.7,3.87038,,
12.8,3.86974,,
12.9,3.86926,,
13.2,3.86723,,
13.3,3.8668,,
13.5,3.86541,,
13.6,3.86484,,
13.8,3.86373,,
14,3.86252,,
14.1,3.862,,
14.3,3.86087,,
14.6,3.85911,,
14.8,3.85811,,
15,3.85702,,
15.2,3.85569,,
15.3,3.85538,,
15.5,3.85436,,
15.7,3.85315,,
15.9,3.85223,,
16.1,3.85133,,
16.3,3.85016,,
16.6,3.84864,,
16.8,3.84764,,
16.9,3.8474,,
17.1,3.84617,,
17.2,3.84581,,
17.4,3.84485,,
17.6,3.84404,,
17.8,3.84298,,
18,3.84209,,
18.3,3.8406,,
18.4,3.8402,,
18.6,3.83939,,
18.8,3.83833,,
19,3.83747,,
19.4,3.83559,,
19.6,3.83472,,
19.9,3.83344,,
20.2,3.83211,,
20.7,3.83003,,
20.8,3.82976,,
21.1,3.82839,,
21.3,3.82755,,
21.4,3.82722,,
21.6,3.82639,,
21.8,3.82571,,
22,3.82486,,
22.1,3.82454,,
22.2,3.8243,,
22.4,3.82343,,
22.6,3.8227,,
22.8,3.82186,,
22.9,3.82152,,
23.1,3.8207,,
23.4,3.8196,,
23.6,3.81891,,
23.8,3.81827,,
24,3.81738,,
24.1,3.81713,,
24.3,3.81645,,
24.4,3.81618,,
24.7,3.81498,,
25,3.81404,,
25.2,3.81339,,
25.4,3.8127,,
25.7,3.81165,,
25.8,3.8115,,
26,3.81071,,
26.1,3.81052,,
26.3,3.80983,,
26.5,3.8092,,
26.7,3.80858,,
26.9,3.80799,,
27.2,3.807,,
27.4,3.80635,,
27.6,3.80582,,
27.9,3.80485,,
28.2,3.80412,,
28.6,3.80284,,
29,3.80154,,
29.2,3.80103,,
29.4,3.80039,,
29.6,3.79987,,
29.8,3.79916,,
30.4,3.79747,,
30.6,3.79683,,
30.9,3.79601,,
31.3,3.79481,,
31.4,3.79456,,
31.6,3.79395,,
31.7,3.7938,,
31.9,3.79319,,
32.1,3.79277,,
32.3,3.79214,,
32.5,3.79154,,
32.6,3.79139,,
32.8,3.79079,,
32.9,3.79053,,
33,3.79027,,
33.1,3.79007,,
33.6,3.78885,,
33.9,3.78814,,
34.1,3.78775,,
34.3,3.78708,,
34.5,3.7866,,
34.8,3.7859,,
34.9,3.7857,,
35.1,3.78498,,
35.2,3.78482,,
35.8,3.78337,,
35.9,3.78334,,
36.1,3.78274,,
36.4,3.78216,,
36.6,3.78169,,
36.9,3.78101,,
37,3.78081,,
37.2,3.78031,,
37.4,3.77972,,
37.6,3.77944,,
37.8,3.77903,,
38.5,3.7774,,
38.6,3.77719,,
38.8,3.77681,,
39,3.7764,,
39.3,3.7756,,
39.4,3.77547,,
39.9,3.77456,,
40.1,3.77399,,
40.2,3.77392,,
40.6,3.77297,,
40.8,3.77246,,
41,3.77214,,
41.2,3.77174,,
41.4,3.77127,,
41.6,3.77089,,
41.8,3.7706,,
42,3.77,,
42.2,3.76954,,
42.4,3.76923,,
42.6,3.76867,,
42.7,3.7685,,
42.9,3.76812,,
43.1,3.76778,,
43.3,3.76747,,
43.6,3.76674,,
43.7,3.76666,,
43.9,3.76632,,
44.1,3.76583,,
44.2,3.76568,,
44.4,3.76527,,
44.5,3.76523,,
44.7,3.76463,,
44.9,3.76456,,
45.1,3.76406,,
45.6,3.76312,,
45.8,3.76275,,
46.2,3.76191,,
46.4,3.76154,,
46.5,3.76148,,
46.7,3.76107,,
46.8,3.76104,,
47,3.76079,,
47.3,3.76014,,
47.6,3.75959,,
47.9,3.75905,,
48.2,3.75871,,
48.4,3.75823,,
48.5,3.75815,,
48.7,3.75786,,
48.9,3.7574,,
49,3.75723,,
49.1,3.75721,,
49.9,3.75587,,
50.1,3.75558,,
50.3,3.75514,,
50.8,3.75432,,
50.9,3.75428,,
51.5,3.75336,,
51.8,3.75262,,
52,3.75229,,
52.1,3.75213,,
52.2,3.75208,,
52.7,3.75123,,
52.9,3.75104,,
53.2,3.75052,,
53.5,3.75008,,
53.9,3.74945,,
54.1,3.74912,,
54.4,3.74864,,
54.6,3.74845,,
54.8,3.74813,,
55,3.74794,,
55.1,3.74788,,
55.3,3.74741,,
55.4,3.74731,,
55.7,3.74691,,
55.9,3.74678,,
56.1,3.74651,,
56.3,3.74598,,
56.5,3.74586,,
57,3.74515,,
57.1,3.74511,,
57.6,3.74433,,
58,3.74377,,
58.1,3.74364,,
58.3,3.74345,,
58.6,3.74284,,
58.8,3.74259,,
59,3.74241,,
59.4,3.74195,,
59.6,3.74158,,
59.8,3.74132,,
59.9,3.74128,,
60,3.74127,,
60.6,3.74031,,
60.8,3.74002,,
61,3.73982,,
61.2,3.73956,,
61.4,3.73927,,
62.5,3.73795,,
62.7,3.73757,,
62.9,3.73734,,
63.1,3.73715,,
63.3,3.73687,,
63.7,3.73635,,
63.8,3.73634,,
64,3.73598,,
64.1,3.73589,,
64.3,3.73557,,
64.5,3.73529,,
64.7,3.73512,,
64.9,3.73475,,
65.1,3.73448,,
65.3,3.73441,,
65.6,3.73396,,
66,3.73337,,
66.1,3.73336,,
66.7,3.73254,,
67,3.7323,,
67.2,3.73199,,
67.4,3.73163,,
67.7,3.73143,,
68,3.7309,,
68.2,3.73069,,
68.4,3.73047,,
68.7,3.73004,,
69.5,3.72923,,
69.8,3.72868,,
70,3.72857,,
70.2,3.72848,,
70.4,3.72817,,
70.6,3.728,,
70.9,3.72769,,
71.1,3.72735,,
71.2,3.72725,,
71.4,3.72699,,
71.8,3.72652,,
72.3,3.72612,,
72.6,3.72559,,
72.8,3.72544,,
73,3.7253,,
73.2,3.72501,,
73.9,3.72442,,
74.1,3.72402,,
74.3,3.72373,,
74.5,3.72355,,
74.8,3.72332,,
75.1,3.72302,,
75.3,3.7228,,
75.4,3.72276,,
75.6,3.72246,,
76.3,3.7218,,
76.4,3.72173,,
76.6,3.72151,,
76.8,3.72133,,
77.4,3.72063,,
77.5,3.72054,,
77.6,3.72049,,
77.7,3.72044,,
78.2,3.71979,,
78.5,3.71954,,
78.9,3.71918,,
79,3.71915,,
79.2,3.71883,,
79.3,3.71877,,
79.6,3.71829,,
79.9,3.71809,,
81.3,3.71676,,
81.7,3.71637,,
82.1,3.71588,,
82.2,3.71582,,
82.7,3.71513,,
82.9,3.71491,,
83.1,3.71467,,
83.3,3.71457,,
83.4,3.71454,,
83.6,3.71427,,
83.8,3.71422,,
84,3.71387,,
84.1,3.71381,,
84.3,3.71358,,
84.6,3.71321,,
85.2,3.71264,,
85.4,3.71241,,
85.6,3.71208,,
85.8,3.71199,,
85.9,3.71196,,
86.1,3.71156,,
86.2,3.71148,,
86.4,3.7114,,
86.6,3.71134,,
87.8,3.7101,,
88.1,3.70981,,
88.6,3.70925,,
88.7,3.70921,,
89.2,3.70885,,
89.9,3.70823,,
90.1,3.70799,,
90.4,3.70766,,
90.9,3.70736,,
91.1,3.70696,,
91.2,3.70683,,
91.3,3.70677,,
91.4,3.70674,,
91.5,3.70671,,
91.8,3.70626,,
91.9,3.70618,,
92.2,3.70602,,
92.4,3.70572,,
92.5,3.7057,,
93.1,3.70504,,
93.3,3.70499,,
93.5,3.70473,,
93.7,3.70451,,
93.9,3.70416,,
94.2,3.70406,,
94.7,3.70366,,
94.9,3.70332,,
95.5,3.70273,,
95.8,3.70258,,
96.5,3.70182,,
96.6,3.70176,,
96.7,3.70174,,
96.9,3.70161,,
97.1,3.70128,,
97.2,3.70117,,
97.4,3.70106,,
97.6,3.70075,,
97.7,3.70074,,
97.9,3.7005,,
98,3.70042,,
98.1,3.70039,,
98.3,3.70022,,
98.4,3.70016,,
98.6,3.6999,,
98.9,3.69962,,
99.2,3.69947,,
99.3,3.69944,,
99.6,3.6992,,
99.9,3.69891,,
100,3.69883,,
100.1,3.69878,,
100.2,3.69875,,
100.7,3.69822,,
100.8,3.69818,,
102.2,3.69709,,
102.7,3.69674,,
102.8,3.69673,,
104,3.69558,,
104.2,3.69553,,
104.8,3.69499,,
105.1,3.69467,,
105.3,3.69459,,
106.3,3.69391,,
106.8,3.6934,,
108.2,3.69205,,
108.4,3.69191,,
108.5,3.69186,,
108.8,3.69151,,
109,3.69141,,
109.2,3.69139,,
109.5,3.6913,,
110.1,3.69069,,
110.2,3.69068,,
110.4,3.69024,,
110.8,3.69022,,
111.1,3.68999,,
111.6,3.68945,,
111.8,3.68939,,
112.3,3.68898,,
112.4,3.68895,,
112.6,3.68876,,
112.8,3.68866,,
113,3.68863,,
113.5,3.68813,,
114,3.68775,,
114.3,3.68759,,
114.7,3.68728,,
115,3.68692,,
115.4,3.68663,,
115.7,3.6865,,
115.9,3.68648,,
116.3,3.68629,,
117,3.6858,,
117.4,3.68555,,
117.6,3.68554,,
117.8,3.68504,,
118.1,3.68498,,
118.7,3.68455,,
118.9,3.6845,,
119.6,3.68403,,
120.1,3.68366,,
120.9,3.68331,,
121.1,3.68316,,
121.5,3.68275,,
121.8,3.68267,,
121.9,3.68266,,
122.2,3.68241,,
122.3,3.68239,,
122.6,3.68235,,
123.3,3.68171,,
125.3,3.68049,,
125.5,3.68031,,
125.7,3.68025,,
125.9,3.68024,,
126.3,3.67997,,
126.8,3.67973,,
127.2,3.67936,,
127.5,3.67922,,
127.7,3.67888,,
128,3.67885,,
128.2,3.6786,,
128.4,3.67823,,
128.8,3.67809,,
129.6,3.67783,,
129.8,3.67743,,
130.3,3.67736,,
130.8,3.67716,,
131,3.67687,,
131.1,3.67679,,
131.2,3.67678,,
131.9,3.67629,,
132.2,3.67622,,
132.4,3.67604,,
132.7,3.67588,,
132.9,3.67559,,
133.1,3.6754,,
133.3,3.67536,,
133.4,3.67535,,
133.6,3.67505,,
133.7,3.67501,,
134,3.67493,,
134.5,3.67462,,
135.2,3.67409,,
135.4,3.6738,,
135.6,3.67369,,
135.8,3.67362,,
136.3,3.67343,,
137,3.67303,,
137.1,3.673,,
137.3,3.67288,,
137.5,3.67262,,
137.7,3.67249,,
137.9,3.67243,,
138.5,3.67198,,
138.6,3.67197,,
139,3.67169,,
139.1,3.67166,,
139.7,3.67124,,
140.8,3.6704,,
140.9,3.67036,,
141.2,3.67005,,
141.6,3.66991,,
141.8,3.66985,,
141.9,3.66982,,
142.5,3.66928,,
142.7,3.66919,,
143,3.66897,,
143.1,3.66896,,
143.4,3.66884,,
143.7,3.66841,,
143.9,3.66829,,
144.3,3.66811,,
144.6,3.66802,,
144.9,3.66775,,
145.2,3.66753,,
145.3,3.66751,,
145.6,3.66733,,
146.8,3.6667,,
147,3.66651,,
147.1,3.66649,,
147.3,3.66627,,
147.6,3.6661,,
147.8,3.66598,,
148,3.66576,,
148.3,3.66565,,
148.7,3.66537,,
148.9,3.66527,,
149.1,3.66523,,
149.7,3.66486,,
150.1,3.66466,,
151.1,3.66392,,
151.2,3.66389,,
151.8,3.66342,,
152,3.66336,,
152.2,3.66318,,
152.3,3.66314,,
152.5,3.66307,,
152.6,3.66305,,
152.9,3.6628,,
153.1,3.66264,,
154.1,3.66194,,
155.7,3.66093,,
155.8,3.66091,,
156,3.66087,,
156.7,3.66046,,
157.2,3.66027,,
157.5,3.65997,,
157.6,3.65996,,
158.6,3.65942,,
158.9,3.65914,,
159.3,3.65899,,
159.6,3.65874,,
160.1,3.65853,,
160.4,3.65841,,
161.6,3.65767,,
161.8,3.65747,,
162.5,3.65718,,
162.9,3.65695,,
163.1,3.65689,,
163.6,3.65677,,
163.8,3.65648,,
164.1,3.65631,,
164.2,3.65627,,
164.5,3.6562,,
165,3.65596,,
167.9,3.65442,,
169.3,3.65369,,
169.7,3.65354,,
169.9,3.65343,,
170.1,3.65321,,
170.4,3.65303,,
170.5,3.65299,,
171.2,3.65283,,
171.4,3.65255,,
171.7,3.65236,,
171.9,3.65235,,
172.7,3.652,,
173.1,3.65187,,
174.8,3.65118,,
175,3.65117,,
175.3,3.6508,,
175.4,3.65076,,
175.6,3.6507,,
175.8,3.65053,,
175.9,3.65048,,
176.1,3.65037,,
176.3,3.65032,,
176.4,3.65031,,
176.6,3.65015,,
177,3.65008,,
177.9,3.64949,,
178,3.64948,,
178.2,3.64936,,
178.6,3.64904,,
179,3.64887,,
179.6,3.64854,,
179.9,3.64846,,
180.6,3.64809,,
181.2,3.64778,,
181.4,3.64773,,
181.6,3.64752,,
182.1,3.64748,,
183,3.64683,,
184.2,3.64634,,
185.9,3.64541,,
186.3,3.6454,,
186.6,3.64512,,
186.8,3.64498,,
187.2,3.64482,,
187.4,3.64476,,
188,3.64459,,
189,3.64436,,
189.3,3.64413,,
189.5,3.64411,,
189.7,3.64385,,
190.3,3.6437,,
191.2,3.64322,,
191.9,3.64295,,
192.1,3.64285,,
192.3,3.64276,,
192.5,3.64256,,
193,3.64247,,
195,3.64178,,
195.5,3.64177,,
195.7,3.64157,,
196,3.6415,,
196.3,3.64147,,
196.5,3.64119,,
196.7,3.64112,,
197,3.64109,,
198.8,3.6404,,
199,3.64022,,
199.4,3.64015,,
199.6,3.64012,,
200.1,3.64008,,
200.3,3.6399,,
200.7,3.63977,,
201,3.63956,,
201.2,3.63953,,
202.1,3.63929,,
202.3,3.63915,,
202.4,3.63913,,
202.9,3.63892,,
203.3,3.63869,,
203.8,3.63864,,
204.5,3.63831,,
205,3.63818,,
205.8,3.6376,,
206.9,3.63723,,
207.2,3.63705,,
207.8,3.63674,,
208.2,3.63667,,
208.4,3.63652,,
208.6,3.63648,,
208.8,3.63633,,
209.2,3.63626,,
209.3,3.63625,,
209.5,3.63601,,
209.7,3.636,,
210.4,3.63571,,
210.7,3.6354,,
210.8,3.63538,,
211.1,3.6352,,
211.4,3.63514,,
211.7,3.63513,,
212.4,3.63477,,
213,3.63452,,
213.2,3.63448,,
214.9,3.63384,,
215.2,3.63364,,
217.1,3.63312,,
220,3.63232,,
220.4,3.63213,,
221,3.63194,,
221.5,3.6318,,
221.7,3.63175,,
222.1,3.63172,,
222.4,3.6316,,
222.9,3.63142,,
223.1,3.63136,,
223.3,3.63124,,
223.6,3.63118,,
223.8,3.63098,,
224.2,3.63088,,
224.4,3.63083,,
224.7,3.63076,,
225,3.63045,,
225.6,3.63041,,
226.7,3.62995,,
227.2,3.6299,,
227.4,3.6296,,
227.7,3.62951,,
228.2,3.62949,,
229.1,3.62901,,
229.3,3.62892,,
229.5,3.62887,,
230.3,3.62857,,
230.5,3.62847,,
230.7,3.62833,,
231,3.62823,,
231.3,3.62809,,
232.1,3.62773,,
232.8,3.6276,,
233.4,3.6273,,
233.6,3.62729,,
233.9,3.62703,,
234,3.62701,,
234.3,3.62698,,
234.6,3.62688,,
234.8,3.62684,,
235.3,3.6268,,
235.9,3.62655,,
236.1,3.62623,,
236.2,3.62622,,
236.4,3.6261,,
236.8,3.62607,,
238.5,3.6254,,
239.2,3.6253,,
239.4,3.62521,,
239.7,3.62508,,
240.4,3.625,,
240.8,3.62498,,
242.6,3.62422,,
242.8,3.62421,,
243.1,3.6242,,
244.5,3.62363,,
244.6,3.62362,,
245.3,3.62355,,
247.4,3.62283,,
247.6,3.62261,,
247.9,3.62257,,
248.2,3.62242,,
248.5,3.6224,,
250.3,3.6219,,
251.9,3.6213,,
252.8,3.62105,,
253,3.62074,,
253.1,3.62072,,
253.4,3.6207,,
254,3.62044,,
254.9,3.6201,,
255.1,3.62008,,
255.6,3.62004,,
256.6,3.61951,,
257.5,3.61935,,
260,3.61842,,
260.5,3.61839,,
260.8,3.6181,,
261,3.61799,,
261.4,3.61778,,
261.7,3.61769,,
262.2,3.61765,,
262.5,3.61758,,
263.9,3.61712,,
264.1,3.61694,,
264.2,3.61689,,
264.5,3.61687,,
264.9,3.61659,,
265,3.61655,,
265.5,3.61651,,
266.1,3.6163,,
266.6,3.61629,,
269.2,3.61543,,
269.4,3.61542,,
269.8,3.6154,,
272.5,3.61472,,
274.1,3.61418,,
275,3.61383,,
275.6,3.6138,,
276.9,3.61378,,
277.1,3.61375,,
277.4,3.61341,,
277.6,3.61327,,
278.7,3.61319,,
279.6,3.61318,,
279.9,3.61308,,
280.1,3.61305,,
280.8,3.61304,,
281.5,3.61279,,
282.1,3.61277,,
283.4,3.61248,,
283.7,3.61231,,
283.9,3.61229,,
284.5,3.61215,,
285.1,3.61201,,
285.7,3.61195,,
286.7,3.61192,,
286.9,3.61178,,
287.3,3.61171,,
288,3.61164,,
288.7,3.61161,,
289.6,3.61133,,
290.1,3.61128,,
290.2,3.61127,,
290.5,3.61113,,
290.7,3.61109,,
291,3.61097,,
291.4,3.61095,,
291.6,3.61074,,
292.5,3.61071,,
293.1,3.61058,,
293.2,3.61057,,
293.7,3.61035,,
294.2,3.61031,,
294.6,3.6103,,
296.2,3.60985,,
296.4,3.60984,,
296.7,3.60968,,
296.9,3.60954,,
297.2,3.60943,,
297.3,3.6094,,
297.5,3.60935,,
297.6,3.60934,,
298.2,3.60928,,
298.6,3.60885,,
298.9,3.60865,,
299.5,3.60861,,
299.7,3.6085,,
299.8,3.60849,,
300.1,3.60847,,
300.6,3.6082,,
301.3,3.60814,,
302.5,3.6078,,
302.7,3.6077,,
303.1,3.6076,,
303.3,3.60757,,
303.6,3.60753,,
306.8,3.60645,,
307,3.60643,,
307.3,3.60629,,
308,3.60597,,
308.3,3.60591,,
308.7,3.60584,,
309,3.60555,,
309.4,3.60539,,
309.8,3.60521,,
310.1,3.60513,,
310.6,3.60502,,
311,3.60493,,
311.4,3.60491,,
311.6,3.60481,,
312.1,3.60477,,
312.4,3.60463,,
312.8,3.60453,,
313.1,3.60441,,
313.4,3.60438,,
317.5,3.6031,,
317.8,3.60307,,
319.2,3.60246,,
319.4,3.60243,,
319.6,3.60242,,
320.1,3.60241,,
320.3,3.60201,,
320.6,3.60193,,
320.8,3.60191,,
321.3,3.60189,,
,,322.718,3.6015674423213895
,,322.81800000000004,3.601545088724412
,,322.91800000000006,3.601522939209067
,,323.0180000000001,3.6015009937753546
,,323.1180000000001,3.601479252423275
,,323.21800000000013,3.601457715152828
,,323.31800000000015,3.6014363819640134
,,323.4180000000002,3.6014152528568313
,,323.5180000000002,3.601394327831282
,,323.6180000000002,3.6013736068873654
,,323.71800000000025,3.601353090025081
,,323.81800000000027,3.60133277724443
,,323.9180000000003,3.601312668545411
,,324.0180000000003,3.6012927639280248
,,324.11800000000034,3.601273063392271
,,324.21800000000036,3.60125356693815
,,324.3180000000004,3.6012342745656616
,,324.4180000000004,3.6012151862748056
,,324.5180000000004,3.6011963020655826
,,324.61800000000045,3.601177621937992
,,324.7180000000005,3.601159145892034
,,324.8180000000005,3.6011408739277084
,,324.9180000000005,3.601122806045016
,,325.01800000000054,3.6011049422439556
,,325.11800000000056,3.601087282524528
,,325.2180000000006,3.601069826886733
,,325.3180000000006,3.601052575330571
,,325.41800000000063,3.601035527856041
,,325.51800000000065,3.6010186844631438
,,325.6180000000007,3.6010020451518794
,,325.7180000000007,3.6009856099222475
,,325.8180000000007,3.600969378774248
,,325.91800000000075,3.6009533517078816
,,326.01800000000077,3.6009375287231475
,,326.1180000000008,3.600921909820046
,,326.2180000000008,3.600906494998577
,,326.31800000000084,3.600891284258741
,,326.41800000000086,3.600876277600537
,,326.5180000000009,3.600861475023966
,,326.6180000000009,3.600846876529028
,,326.7180000000009,3.600832482115722
,,326.81800000000095,3.6008182917840488
,,326.918000000001,3.600804305534008
,,327.018000000001,3.6007905233656
,,327.118000000001,3.6007769452788247
,,327.21800000000104,3.600763571273682
,,327.31800000000106,3.600750401350172
,,327.4180000000011,3.6007374355082944
,,327.5180000000011,3.6007246737480494
,,327.61800000000113,3.600712116069437
,,327.71800000000115,3.6006997624724573
,,327.8180000000012,3.60068761295711
,,327.9180000000012,3.6006756675233955
,,328.0180000000012,3.600663926171314
,,328.11800000000125,3.6006523889008646
,,328.21800000000127,3.600641055712048
,,328.3180000000013,3.6006299266048636
,,328.4180000000013,3.6006190015793123
,,328.51800000000134,3.6006082806353934
,,328.61800000000136,3.600597763773107
,,328.7180000000014,3.6005874509924536
,,328.8180000000014,3.6005773422934326
,,328.9180000000014,3.600567437676044
,,329.01800000000145,3.600557737140288
,,329.1180000000015,3.600548240686165
,,329.2180000000015,3.6005389483136745
,,329.3180000000015,3.6005298600228164
,,329.41800000000154,3.600520975813591
,,329.51800000000156,3.6005122956859985
,,329.6180000000016,3.6005038196400383
,,329.7180000000016,3.6004955476757106
,,329.81800000000163,3.6004874797930158
,,329.91800000000165,3.6004796159919534
,,330.0180000000017,3.6004719562725236
,,330.1180000000017,3.6004645006347267
,,330.2180000000017,3.6004572490785622
,,330.31800000000175,3.6004502016040303
,,330.41800000000177,3.600443358211131
,,330.5180000000018,3.6004367188998643
,,330.6180000000018,3.60043028367023
,,330.71800000000184,3.6004240525222286
,,330.81800000000186,3.60041802545586
,,330.9180000000019,3.600412202471124
,,331.0180000000019,3.60040658356802
,,331.1180000000019,3.600401168746549
,,331.21800000000195,3.6003959580067106
,,331.318000000002,3.600390951348505
,,331.418000000002,3.6003861487719315
,,331.518000000002,3.600381550276991
,,331.61800000000204,3.6003771558636832
,,331.71800000000206,3.600372965532008
,,331.8180000000021,3.600368979281965
,,331.9180000000021,3.600365197113555
,,332.01800000000213,3.6003616190267773
,,332.11800000000216,3.6003582450216323
,,332.2180000000022,3.60035507509812
,,332.3180000000022,3.6003521092562405
,,332.4180000000022,3.6003493474959933
,,332.51800000000225,3.6003467898173787
,,332.61800000000227,3.600344436220397
,,332.7180000000023,3.6003422867050476
,,332.8180000000023,3.600340341271331
,,332.91800000000234,3.600338599919247
,,333.01800000000236,3.6003370626487956
,,333.1180000000024,3.6003357294599767
,,333.2180000000024,3.6003346003527903
,,333.3180000000024,3.600333675327237
,,333.41800000000245,3.600332954383316
,,333.5180000000025,3.6003324375210273
,,333.6180000000025,3.6003321247403717
,,333.7180000000025,3.6003320160413486
,,333.81800000000254,3.6003320160413486
,,333.91800000000256,3.6003320160413486
,,334.0180000000026,3.6003320160413486
,,334.1180000000026,3.6003320160413486
,,334.21800000000263,3.6003320160413486
,,334.31800000000266,3.6003320160413486
,,334.4180000000027,3.6003320160413486
,,334.5180000000027,3.6003320160413486
,,334.6180000000027,3.6003320160413486
,,334.71800000000275,3.6003320160413486
,,334.81800000000277,3.6003320160413486
,,334.9180000000028,3.6003320160413486
,,335.0180000000028,3.6003320160413486
,,335.11800000000284,3.6003320160413486
,,335.21800000000286,3.6003320160413486
,,335.3180000000029,3.6003320160413486
,,335.4180000000029,3.6003320160413486
,,335.5180000000029,3.6003320160413486
,,335.61800000000295,3.6003320160413486
,,335.718000000003,3.6003320160413486
,,335.818000000003,3.6003320160413486
,,335.918000000003,3.6003320160413486
,,336.01800000000304,3.6003320160413486
,,336.11800000000306,3.6003320160413486
,,336.2180000000031,3.6003320160413486
,,336.3180000000031,3.6003320160413486
,,336.41800000000313,3.6003320160413486
,,336.51800000000316,3.6003320160413486
,,336.6180000000032,3.6003320160413486
,,336.7180000000032,3.6003320160413486
,,336.8180000000032,3.6003320160413486
,,336.91800000000325,3.6003320160413486
,,337.01800000000327,3.6003320160413486
,,337.1180000000033,3.6003320160413486
,,337.2180000000033,3.6003320160413486
,,337.31800000000334,3.6003320160413486
,,337.41800000000336,3.6003320160413486
,,337.5180000000034,3.6003320160413486
,,337.6180000000034,3.6003320160413486
,,337.7180000000034,3.6003320160413486
,,337.81800000000345,3.6003320160413486
,,337.9180000000035,3.6003320160413486
,,338.0180000000035,3.6003320160413486
,,338.1180000000035,3.6003320160413486
,,338.21800000000354,3.6003320160413486
,,338.31800000000356,3.6003320160413486
,,338.4180000000036,3.6003320160413486
,,338.5180000000036,3.6003320160413486
,,338.61800000000363,3.6003320160413486
,,338.71800000000366,3.6003320160413486
,,338.8180000000037,3.6003320160413486
,,338.9180000000037,3.6003320160413486
,,339.0180000000037,3.6003320160413486
