Time,Stress,Time,Extrapolated Stress
0,0.91316
0.1,0.90966,,
0.2,0.90674,,
0.3,0.9043,,
0.4,0.90231,,
0.5,0.90083,,
0.7,0.89797,,
0.8,0.89694,,
1,0.89481,,
1.1,0.89389,,
1.2,0.89303,,
1.3,0.89228,,
1.4,0.89157,,
1.5,0.89099,,
1.7,0.88954,,
1.8,0.88902,,
2,0.88778,,
2.2,0.88662,,
2.3,0.88631,,
2.5,0.88529,,
2.6,0.88487,,
2.7,0.88447,,
2.9,0.8834,,
3,0.88323,,
3.2,0.8824,,
3.4,0.88168,,
3.6,0.88091,,
3.8,0.88016,,
4,0.87938,,
4.1,0.87934,,
4.3,0.87863,,
4.5,0.87794,,
4.8,0.87719,,
5,0.87656,,
5.2,0.87605,,
5.4,0.87557,,
5.6,0.87501,,
5.8,0.87445,,
5.9,0.87444,,
6.1,0.87382,,
7.2,0.8714,,
7.3,0.87128,,
7.6,0.87072,,
8,0.8701,,
8.3,0.86947,,
8.8,0.86874,,
9.1,0.86811,,
9.2,0.86807,,
9.5,0.86767,,
9.9,0.8671,,
10.2,0.86647,,
10.4,0.86605,,
10.7,0.8657,,
11.1,0.86526,,
11.3,0.86493,,
11.5,0.86479,,
11.7,0.86455,,
11.9,0.86428,,
12.1,0.86403,,
12.3,0.86364,,
12.6,0.86328,,
12.8,0.86312,,
13,0.863,,
13.2,0.86249,,
13.4,0.86234,,
13.6,0.86229,,
13.8,0.86193,,
13.9,0.86189,,
14,0.86188,,
14.2,0.86171,,
14.5,0.86132,,
14.6,0.86131,,
14.8,0.86109,,
15,0.86079,,
15.3,0.86058,,
15.6,0.86009,,
15.7,0.86002,,
15.8,0.85995,,
16,0.85982,,
16.2,0.85974,,
16.4,0.85943,,
16.7,0.85929,,
17,0.85903,,
17.4,0.85857,,
17.5,0.85855,,
18,0.85823,,
18.2,0.85776,,
18.4,0.85774,,
18.9,0.85725,,
19.4,0.85717,,
19.6,0.85664,,
19.9,0.85658,,
20.1,0.85637,,
20.6,0.85605,,
20.8,0.85572,,
21,0.85566,,
21.3,0.85523,,
21.5,0.85519,,
22.5,0.85479,,
23.5,0.85412,,
23.6,0.85409,,
23.8,0.854,,
24.6,0.85357,,
25.5,0.85301,,
26.1,0.85275,,
26.4,0.85249,,
27.1,0.85212,,
27.3,0.85207,,
27.5,0.85188,,
28.2,0.85171,,
28.4,0.85145,,
28.6,0.8514,,
28.8,0.85119,,
28.9,0.85117,,
29.2,0.85106,,
30.3,0.85051,,
30.7,0.85046,,
31,0.85023,,
32.4,0.84947,,
32.7,0.84938,,
33,0.84916,,
33.2,0.84915,,
33.9,0.8488,,
34.5,0.84843,,
34.8,0.84821,,
34.9,0.8482,,
35.1,0.84808,,
35.3,0.84804,,
35.8,0.84796,,
36.3,0.84766,,
36.6,0.84749,,
36.8,0.84746,,
38.1,0.84697,,
38.3,0.84671,,
38.7,0.8465,,
39,0.84639,,
39.8,0.84624,,
40.2,0.84622,,
42.9,0.84516,,
43.2,0.84491,,
43.7,0.84484,,
44.1,0.84482,,
44.3,0.8447,,
44.4,0.84468,,
44.8,0.84463,,
45.1,0.84438,,
45.3,0.84436,,
45.5,0.84418,,
45.7,0.84417,,
46.9,0.84384,,
47.2,0.84375,,
48.1,0.84357,,
48.8,0.84329,,
49.1,0.84327,,
49.3,0.84314,,
49.6,0.84306,,
49.8,0.84292,,
50,0.8429,,
51.5,0.84254,,
51.6,0.84253,,
51.8,0.84235,,
52.2,0.84223,,
52.5,0.84217,,
53.6,0.84201,,
54.2,0.84168,,
54.3,0.84167,,
56.4,0.841,,
57.4,0.84098,,
57.6,0.84078,,
57.8,0.84068,,
58.3,0.84063,,
58.6,0.8406,,
59.4,0.84054,,
59.9,0.84016,,
60.1,0.84007,,
60.5,0.83996,,
60.8,0.8399,,
61.3,0.83985,,
61.8,0.83984,,
62.4,0.83983,,
68.8,0.8383,,
69.3,0.83821,,
69.8,0.83816,,
70,0.83806,,
70.2,0.83792,,
70.4,0.83787,,
71,0.83783,,
71.4,0.83782,,
71.6,0.8377,,
71.9,0.83765,,
72.8,0.83753,,
73.3,0.8375,,
74.8,0.83706,,
75.3,0.83705,,
75.5,0.83695,,
76.1,0.83689,,
83,0.83543,,
83.9,0.83539,,
84.1,0.83515,,
84.9,0.8351,,
86.4,0.83505,,
99.6,0.83281,,
99.8,0.8328,,
100,0.83264,,
100.2,0.83263,,
101.2,0.83261,,
101.5,0.83228,,
101.7,0.83227,,
102.5,0.83226,,
102.7,0.83201,,
103.1,0.83191,,
103.9,0.83186,,
105.4,0.83183,,
106.4,0.83155,,
106.6,0.83147,,
107.2,0.83144,,
107.9,0.8313,,
108.1,0.83127,,
108.3,0.83125,,
109,0.83123,,
109.4,0.8309,,
109.9,0.83087,,
112.4,0.83075,,
113.2,0.83072,,
114.7,0.83043,,
115.5,0.8304,,
116.9,0.83035,,
117.2,0.83021,,
117.4,0.83013,,
117.8,0.83008,,
118.4,0.83006,,
119.9,0.83002,,
121.4,0.82969,,
121.8,0.82966,,
122.8,0.82961,,
123.3,0.82948,,
123.6,0.82946,,
124.1,0.82944,,
126.4,0.829,,
127.4,0.82892,,
128.8,0.82883,,
140,0.82757,,
140.5,0.82754,,
141.2,0.82737,,
141.6,0.82731,,
142.2,0.82722,,
143.3,0.82711,,
144.2,0.82705,,
144.8,0.82701,,
146.7,0.82691,,
148.1,0.82687,,
149.6,0.82634,,
150.6,0.82615,,
152.4,0.8261,,
154.1,0.8259,,
155,0.82584,,
155.9,0.82582,,
156.8,0.82558,,
157.7,0.82554,,
158.4,0.82551,,
160.2,0.82544,,
162.6,0.82537,,
163.5,0.82504,,
164,0.82494,,
164.7,0.82489,,
166.3,0.82484,,
166.5,0.82465,,
167.2,0.82464,,
168,0.82463,,
168.8,0.82462,,
169.1,0.8245,,
169.4,0.82437,,
169.8,0.82429,,
170.1,0.82418,,
171.1,0.82416,,
172.1,0.82415,,
177.3,0.82362,,
178,0.82356,,
178.5,0.82345,,
178.7,0.82332,,
179,0.8233,,
180.1,0.82324,,
180.4,0.82323,,
182.3,0.82322,,
,,294.579,0.8158234250693499
,,294.67900000000003,0.8158168628938017
,,294.77900000000005,0.8158103134733556
,,294.8790000000001,0.8158037768080115
,,294.9790000000001,0.8157972528977695
,,295.0790000000001,0.8157907417426296
,,295.17900000000014,0.8157842433425916
,,295.27900000000017,0.8157777576976557
,,295.3790000000002,0.8157712848078218
,,295.4790000000002,0.81576482467309
,,295.57900000000024,0.8157583772934602
,,295.67900000000026,0.8157519426689325
,,295.7790000000003,0.8157455207995068
,,295.8790000000003,0.8157391116851831
,,295.9790000000003,0.8157327153259615
,,296.07900000000035,0.815726331721842
,,296.17900000000037,0.8157199608728244
,,296.2790000000004,0.8157136027789089
,,296.3790000000004,0.8157072574400954
,,296.47900000000044,0.815700924856384
,,296.57900000000046,0.8156946050277746
,,296.6790000000005,0.8156882979542672
,,296.7790000000005,0.815682003635862
,,296.87900000000053,0.8156757220725587
,,296.97900000000055,0.8156694532643575
,,297.0790000000006,0.8156631972112582
,,297.1790000000006,0.8156569539132611
,,297.2790000000006,0.815650723370366
,,297.37900000000064,0.815644505582573
,,297.47900000000067,0.815638300549882
,,297.5790000000007,0.8156321082722929
,,297.6790000000007,0.815625928749806
,,297.77900000000074,0.8156197619824211
,,297.87900000000076,0.8156136079701383
,,297.9790000000008,0.8156074667129575
,,298.0790000000008,0.8156013382108787
,,298.1790000000008,0.8155952224639019
,,298.27900000000085,0.8155891194720273
,,298.3790000000009,0.8155830292352546
,,298.4790000000009,0.815576951753584
,,298.5790000000009,0.8155708870270154
,,298.67900000000094,0.8155648350555489
,,298.77900000000096,0.8155587958391844
,,298.879000000001,0.815552769377922
,,298.979000000001,0.8155467556717616
,,299.07900000000103,0.8155407547207032
,,299.17900000000105,0.8155347665247469
,,299.2790000000011,0.8155287910838926
,,299.3790000000011,0.8155228283981404
,,299.4790000000011,0.8155168784674902
,,299.57900000000114,0.815510941291942
,,299.67900000000117,0.8155050168714959
,,299.7790000000012,0.8154991052061519
,,299.8790000000012,0.8154932062959098
,,299.97900000000124,0.8154873201407699
,,300.07900000000126,0.8154814467407319
,,300.1790000000013,0.815475586095796
,,300.2790000000013,0.815469738205962
,,300.3790000000013,0.8154639030712302
,,300.47900000000135,0.8154580806916004
,,300.5790000000014,0.8154522710670726
,,300.6790000000014,0.8154464741976469
,,300.7790000000014,0.8154406900833232
,,300.87900000000144,0.8154349187241016
,,300.97900000000146,0.815429160119982
,,301.0790000000015,0.8154234142709644
,,301.1790000000015,0.8154176811770489
,,301.27900000000153,0.8154119608382354
,,301.37900000000155,0.815406253254524
,,301.4790000000016,0.8154005584259146
,,301.5790000000016,0.8153948763524073
,,301.6790000000016,0.815389207034002
,,301.77900000000164,0.8153835504706987
,,301.87900000000167,0.8153779066624974
,,301.9790000000017,0.8153722756093983
,,302.0790000000017,0.8153666573114011
,,302.17900000000174,0.815361051768506
,,302.27900000000176,0.8153554589807129
,,302.3790000000018,0.8153498789480219
,,302.4790000000018,0.815344311670433
,,302.5790000000018,0.815338757147946
,,302.67900000000185,0.8153332153805611
,,302.7790000000019,0.8153276863682782
,,302.8790000000019,0.8153221701110974
,,302.9790000000019,0.8153166666090187
,,303.07900000000194,0.8153111758620419
,,303.17900000000196,0.8153056978701673
,,303.279000000002,0.8153002326333946
,,303.379000000002,0.815294780151724
,,303.47900000000203,0.8152893404251553
,,303.57900000000205,0.8152839134536888
,,303.6790000000021,0.8152784992373243
,,303.7790000000021,0.8152730977760618
,,303.8790000000021,0.8152677090699014
,,303.97900000000215,0.815262333118843
,,304.07900000000217,0.8152569699228867
,,304.1790000000022,0.8152516194820324
,,304.2790000000022,0.8152462817962801
,,304.37900000000224,0.8152409568656299
,,304.47900000000226,0.8152356446900817
,,304.5790000000023,0.8152303452696356
,,304.6790000000023,0.8152250586042915
,,304.7790000000023,0.8152197846940494
,,304.87900000000235,0.8152145235389094
,,304.9790000000024,0.8152092751388714
,,305.0790000000024,0.8152040394939355
,,305.1790000000024,0.8151988166041017
,,305.27900000000244,0.8151936064693698
,,305.37900000000246,0.81518840908974
,,305.4790000000025,0.8151832244652122
,,305.5790000000025,0.8151780525957865
,,305.67900000000253,0.8151728934814628
,,305.77900000000255,0.8151677471222412
,,305.8790000000026,0.8151626135181216
,,305.9790000000026,0.815157492669104
,,306.0790000000026,0.8151523845751885
,,306.17900000000265,0.815147289236375
,,306.27900000000267,0.8151422066526636
,,306.3790000000027,0.8151371368240542
,,306.4790000000027,0.8151320797505468
,,306.57900000000274,0.8151270354321415
,,306.67900000000276,0.8151220038688383
,,306.7790000000028,0.815116985060637
,,306.8790000000028,0.8151119790075378
,,306.9790000000028,0.8151069857095407
,,307.07900000000285,0.8151020051666455
,,307.1790000000029,0.8150970373788524
,,307.2790000000029,0.8150920823461614
,,307.3790000000029,0.8150871400685724
,,307.47900000000294,0.8150822105460854
,,307.57900000000296,0.8150772937787005
,,307.679000000003,0.8150723897664176
,,307.779000000003,0.8150674985092368
,,307.87900000000303,0.815062620007158
,,307.97900000000305,0.8150577542601812
,,308.0790000000031,0.8150529012683065
,,308.1790000000031,0.8150480610315338
,,308.2790000000031,0.8150432335498632
,,308.37900000000315,0.8150384188232946
,,308.47900000000317,0.8150336168518281
,,308.5790000000032,0.8150288276354636
,,308.6790000000032,0.8150240511742011
,,308.77900000000324,0.8150192874680406
,,308.87900000000326,0.8150145365169823
,,308.9790000000033,0.8150097983210259
,,309.0790000000033,0.8150050728801717
,,309.1790000000033,0.8150003601944193
,,309.27900000000335,0.8149956602637691
,,309.3790000000034,0.814990973088221
,,309.4790000000034,0.8149862986677748
,,309.5790000000034,0.8149816370024308
,,309.67900000000344,0.8149769880921887
,,309.77900000000346,0.8149723519370486
,,309.8790000000035,0.8149677285370107
,,309.9790000000035,0.8149631178920748
,,310.07900000000353,0.8149585200022409
,,310.17900000000355,0.814953934867509
,,310.2790000000036,0.8149493624878792
,,310.3790000000036,0.8149448028633515
,,310.4790000000036,0.8149402559939257
,,310.57900000000365,0.8149357218796021
,,310.67900000000367,0.8149312005203804
,,310.7790000000037,0.8149266919162608
,,310.8790000000037,0.8149221960672431
,,310.97900000000374,0.8149177129733276
,,311.07900000000376,0.8149132426345141
,,311.1790000000038,0.8149087850508027
,,311.2790000000038,0.8149043402221933
,,311.3790000000038,0.8148999081486858
,,311.47900000000385,0.8148954888302805
,,311.5790000000039,0.8148910822669773
,,311.6790000000039,0.814886688458776
,,311.7790000000039,0.8148823074056768
,,311.87900000000394,0.8148779391076796
,,311.97900000000396,0.8148735835647845
,,312.079000000004,0.8148692407769914
,,312.179000000004,0.8148649107443003
,,312.27900000000403,0.8148605934667114
,,312.37900000000405,0.8148562889442243
,,312.4790000000041,0.8148519971768394
,,312.5790000000041,0.8148477181645566
,,312.6790000000041,0.8148434519073757
,,312.77900000000415,0.814839198405297
,,312.87900000000417,0.8148349576583201
,,312.9790000000042,0.8148307296664454
,,313.0790000000042,0.8148265144296728
,,313.17900000000424,0.8148223119480021
,,313.27900000000426,0.8148181222214336
,,313.3790000000043,0.814813945249967
,,313.4790000000043,0.8148097810336025
,,313.5790000000043,0.81480562957234
,,313.67900000000435,0.8148014908661796
,,313.7790000000044,0.8147973649151212
,,313.8790000000044,0.8147932517191648
,,313.9790000000044,0.8147891512783105
,,314.07900000000444,0.8147850635925583
,,314.17900000000446,0.8147809886619081
,,314.2790000000045,0.8147769264863599
,,314.3790000000045,0.8147728770659137
,,314.47900000000453,0.8147688404005696
,,314.57900000000456,0.8147648164903275
,,314.6790000000046,0.8147608053351875
,,314.7790000000046,0.8147568069351495
,,314.8790000000046,0.8147528212902135
,,314.97900000000465,0.8147488484003796
,,315.07900000000467,0.8147448882656477
,,315.1790000000047,0.8147409408860179
,,315.2790000000047,0.8147370062614901
,,315.37900000000474,0.8147330843920644
,,315.47900000000476,0.8147291752777407
,,315.5790000000048,0.814725278918519
,,315.6790000000048,0.8147213953143994
,,315.7790000000048,0.8147175244653818
,,315.87900000000485,0.8147136663714662
,,315.9790000000049,0.8147098210326528
,,316.0790000000049,0.8147059884489413
,,316.1790000000049,0.8147021686203318
,,316.27900000000494,0.8146983615468245
,,316.37900000000496,0.8146945672284192
,,316.479000000005,0.8146907856651159
,,316.579000000005,0.8146870168569146
,,316.67900000000503,0.8146832608038154
,,316.77900000000506,0.8146795175058182
,,316.8790000000051,0.8146757869629231
,,316.9790000000051,0.81467206917513
,,317.0790000000051,0.8146683641424389
,,317.17900000000515,0.8146646718648499
,,317.27900000000517,0.814660992342363
,,317.3790000000052,0.814657325574978
,,317.4790000000052,0.8146536715626952
,,317.57900000000524,0.8146500303055143
,,317.67900000000526,0.8146464018034355
,,317.7790000000053,0.8146427860564587
,,317.8790000000053,0.8146391830645839
,,317.9790000000053,0.8146355928278113
,,318.07900000000535,0.8146320153461406
,,318.1790000000054,0.814628450619572
,,318.2790000000054,0.8146248986481054
,,318.3790000000054,0.8146213594317409
,,318.47900000000544,0.8146178329704784
,,318.57900000000546,0.8146143192643179
,,318.6790000000055,0.8146108183132595
,,318.7790000000055,0.8146073301173031
,,318.87900000000553,0.8146038546764488
,,318.97900000000556,0.8146003919906966
,,319.0790000000056,0.8145969420600463
,,319.1790000000056,0.8145935048844981
,,319.2790000000056,0.8145900804640519
,,319.37900000000565,0.8145866687987078
,,319.47900000000567,0.8145832698884657
,,319.5790000000057,0.8145798837333257
,,319.6790000000057,0.8145765103332877
,,319.77900000000574,0.8145731496883517
,,319.87900000000576,0.8145698017985178
,,319.9790000000058,0.814566466663786
,,320.0790000000058,0.8145631442841561
,,320.17900000000583,0.8145598346596283
,,320.27900000000585,0.8145565377902025
,,320.3790000000059,0.8145532536758788
,,320.4790000000059,0.8145499823166572
,,320.5790000000059,0.8145467237125376
,,320.67900000000594,0.81454347786352
,,320.77900000000596,0.8145402447696044
,,320.879000000006,0.8145370244307909
,,320.979000000006,0.8145338168470795
,,321.07900000000603,0.81453062201847
,,321.17900000000606,0.8145274399449627
,,321.2790000000061,0.8145242706265573
,,321.3790000000061,0.814521114063254
,,321.4790000000061,0.8145179702550527
,,321.57900000000615,0.8145148392019534
,,321.67900000000617,0.8145117209039563
,,321.7790000000062,0.8145086153610611
,,321.8790000000062,0.814505522573268
,,321.97900000000624,0.8145024425405769
,,322.07900000000626,0.8144993752629879
,,322.1790000000063,0.8144963207405009
,,322.2790000000063,0.814493278973116
,,322.37900000000633,0.8144902499608331
,,322.47900000000635,0.8144872337036522
,,322.5790000000064,0.8144842302015733
,,322.6790000000064,0.8144812394545966
,,322.7790000000064,0.8144782614627218
,,322.87900000000644,0.8144752962259492
,,322.97900000000647,0.8144723437442785
,,323.0790000000065,0.8144694040177098
,,323.1790000000065,0.8144664770462433
,,323.27900000000653,0.8144635628298788
,,323.37900000000656,0.8144606613686163
,,323.4790000000066,0.8144577726624558
,,323.5790000000066,0.8144548967113974
,,323.6790000000066,0.814452033515441
,,323.77900000000665,0.8144491830745867
,,323.87900000000667,0.8144463453888344
,,323.9790000000067,0.8144435204581841
,,324.0790000000067,0.8144407082826359
,,324.17900000000674,0.8144379088621898
,,324.27900000000676,0.8144351221968457
,,324.3790000000068,0.8144323482866036
,,324.4790000000068,0.8144295871314635
,,324.57900000000683,0.8144268387314255
,,324.67900000000685,0.8144241030864896
,,324.7790000000069,0.8144213801966557
,,324.8790000000069,0.8144186700619238
,,324.9790000000069,0.8144159726822939
,,325.07900000000694,0.8144132880577661
,,325.17900000000697,0.8144106161883403
,,325.279000000007,0.8144079570740166
,,325.379000000007,0.8144053107147949
,,325.47900000000703,0.8144026771106753
,,325.57900000000706,0.8144000562616577
,,325.6790000000071,0.8143974481677421
,,325.7790000000071,0.8143948528289285
,,325.8790000000071,0.8143922702452171
,,325.97900000000715,0.8143897004166076
,,326.07900000000717,0.8143871433431003
,,326.1790000000072,0.8143845990246948
,,326.2790000000072,0.8143820674613915
,,326.37900000000724,0.8143795486531903
,,326.47900000000726,0.814377042600091
,,326.5790000000073,0.8143745493020939
,,326.6790000000073,0.8143720687591987
,,326.77900000000733,0.8143696009714055
,,326.87900000000735,0.8143671459387145
,,326.9790000000074,0.8143647036611255
,,327.0790000000074,0.8143622741386385
,,327.1790000000074,0.8143598573712535
,,327.27900000000744,0.8143574533589706
,,327.37900000000747,0.8143550621017898
,,327.4790000000075,0.8143526835997109
,,327.5790000000075,0.8143503178527342
,,327.67900000000753,0.8143479648608594
,,327.77900000000756,0.8143456246240867
,,327.8790000000076,0.814343297142416
,,327.9790000000076,0.8143409824158474
,,328.0790000000076,0.8143386804443808
,,328.17900000000765,0.8143363912280163
,,328.27900000000767,0.8143341147667538
,,328.3790000000077,0.8143318510605934
,,328.4790000000077,0.8143296001095349
,,328.57900000000774,0.8143273619135786
,,328.67900000000776,0.8143251364727242
,,328.7790000000078,0.8143229237869719
,,328.8790000000078,0.8143207238563216
,,328.97900000000783,0.8143185366807734
,,329.07900000000785,0.8143163622603272
,,329.1790000000079,0.814314200594983
,,329.2790000000079,0.814312051684741
,,329.3790000000079,0.8143099155296009
,,329.47900000000794,0.8143077921295628
,,329.57900000000797,0.8143056814846269
,,329.679000000008,0.8143035835947929
,,329.779000000008,0.8143014984600611
,,329.87900000000803,0.8142994260804312
,,329.97900000000806,0.8142973664559033
,,330.0790000000081,0.8142953195864776
,,330.1790000000081,0.8142932854721538
,,330.2790000000081,0.8142912641129322
,,330.37900000000815,0.8142892555088125
,,330.47900000000817,0.8142872596597949
,,330.5790000000082,0.8142852765658793
,,330.6790000000082,0.8142833062270658
,,330.77900000000824,0.8142813486433543
,,330.87900000000826,0.8142794038147448
,,330.9790000000083,0.8142774717412374
,,331.0790000000083,0.8142755524228321
,,331.17900000000833,0.8142736458595288
,,331.27900000000835,0.8142717520513275
,,331.3790000000084,0.8142698709982282
,,331.4790000000084,0.814268002700231
,,331.5790000000084,0.8142661471573359
,,331.67900000000844,0.8142643043695428
,,331.77900000000847,0.8142624743368517
,,331.8790000000085,0.8142606570592626
,,331.9790000000085,0.8142588525367757
,,332.07900000000853,0.8142570607693906
,,332.17900000000856,0.8142552817571077
,,332.2790000000086,0.8142535154999269
,,332.3790000000086,0.814251761997848
,,332.4790000000086,0.8142500212508712
,,332.57900000000865,0.8142482932589964
,,332.67900000000867,0.8142465780222237
,,332.7790000000087,0.814244875540553
,,332.8790000000087,0.8142431858139844
,,332.97900000000874,0.8142415088425178
,,333.07900000000876,0.8142398446261532
,,333.1790000000088,0.8142381931648907
,,333.2790000000088,0.8142365544587302
,,333.37900000000883,0.8142349285076718
,,333.47900000000885,0.8142333153117154
,,333.5790000000089,0.814231714870861
,,333.6790000000089,0.8142301271851087
,,333.7790000000089,0.8142285522544584
,,333.87900000000894,0.8142269900789102
,,333.97900000000897,0.814225440658464
,,334.079000000009,0.8142239039931198
,,334.179000000009,0.8142223800828777
,,334.27900000000903,0.8142208689277377
,,334.37900000000906,0.8142193705276997
,,334.4790000000091,0.8142178848827637
,,334.5790000000091,0.8142164119929297
,,334.6790000000091,0.8142149518581978
