Time,Stress,Derivative,SecondDerivative
0,1.53757,,
2,1.50996,-0.013805000000000067,
4,1.49857,-0.005695000000000006,-0.002847500000000003
6,1.49074,-0.003915000000000002,0.004945000000000033
8,1.48462,-0.0030599999999999516,0.001317500000000027
10,1.47969,-0.0024650000000000505,0.0007249999999999757
12,1.47541,-0.0021399999999999197,0.00046000000000001595
14,1.4718,-0.0018050000000000566,0.00032999999999999696
16,1.46861,-0.001595000000000013,0.00027249999999995334
18,1.46572,-0.0014450000000000296,0.00018000000000001348
20,1.46311,-0.0013050000000000006,0.00014500000000000624
22,1.46062,-0.0012449999999999406,0.0001000000000000445
24,1.45853,-0.0010449999999999626,0.000130000000000019
26,1.45655,-0.0009900000000000464,0.0001274999999999471
28,1.45468,-0.0009350000000000191,5.499999999997174E-05
30,1.45298,-0.0008500000000000174,7.00000000000145E-05
32,1.45144,-0.0007699999999999374,8.250000000004087E-05
34,1.44988,-0.0007800000000000029,
36,1.44843,-0.0007249999999999757,6.250000000002087E-05
38,1.44713,-0.0006500000000000394,6.499999999998174E-05
40,1.44578,-0.0006749999999999812,
42,1.44461,-0.0005850000000000577,6.999999999995898E-05
44,1.44343,-0.0005899999999999794,
46,1.44225,-0.0005899999999999794,4.250000000000087E-05
48,1.44124,-0.0005049999999999777,4.250000000000087E-05
50,1.44019,-0.0005249999999999977,
52,1.43918,-0.0005050000000000887,4.249999999994536E-05
54,1.43821,-0.0004849999999999577,2.0000000000020002E-05
56,1.43729,-0.00046000000000001595,2.250000000003638E-05
58,1.4364,-0.0004450000000000287,1.999999999996449E-05
60,1.43555,-0.0004249999999998977,1.7500000000059135E-05
62,1.43473,-0.00041000000000002146,1.7500000000003624E-05
64,1.43384,-0.0004450000000000287,
66,1.43308,-0.00038000000000004697,2.2499999999925357E-05
68,1.43235,-0.0003649999999999487,4.0000000000040004E-05
70,1.43156,-0.0003950000000000342,
72,1.43085,-0.0003549999999999942,1.2500000000026379E-05
74,1.43011,-0.00036999999999998145,
76,1.42951,-0.00029999999999996696,4.7500000000033626E-05
78,1.4288,-0.0003549999999999942,
80,1.42812,-0.00034000000000000696,1.4999999999987246E-05
82,1.42747,-0.0003250000000000197,1.4999999999987246E-05
84,1.4268,-0.0003349999999999742,
86,1.42624,-0.000280000000000058,2.999999999997449E-05
88,1.42557,-0.0003349999999999742,
90,1.42498,-0.0002950000000000452,1.999999999996449E-05
92,1.42433,-0.0003249999999999087,
94,1.42384,-0.00024500000000005073,4.499999999996174E-05
96,1.42328,-0.00027999999999994696,
98,1.42272,-0.000280000000000058,
100,1.42217,-0.0002750000000000252,2.4999999999941735E-05
102,1.42167,-0.00024999999999997247,1.5000000000042757E-05
104,1.42102,-0.0003250000000000197,
106,1.42054,-0.00024000000000001798,1.7500000000003624E-05
108,1.41995,-0.0002949999999999342,
110,1.41942,-0.00026500000000007073,2.999999999997449E-05
112,1.41898,-0.00021999999999999797,3.7499999999968114E-05
114,1.41851,-0.00023499999999998522,
116,1.41808,-0.00021499999999996522,2.5000000000052758E-05
118,1.41761,-0.00023499999999998522,
120,1.41715,-0.0002300000000000635,2.499999999960867E-06
122,1.41672,-0.00021499999999996522,1.0000000000010001E-05
124,1.4163,-0.00021000000000004349,1.0000000000010001E-05
126,1.41593,-0.00018499999999999073,1.4999999999987246E-05
128,1.41541,-0.00025999999999992696,
130,1.41505,-0.000180000000000069,1.4999999999987246E-05
132,1.41459,-0.00022999999999995246,
134,1.41414,-0.00022500000000003073,1.7499999999948113E-05
136,1.41372,-0.00020999999999993246,1.0000000000010001E-05
138,1.41332,-0.000200000000000089,1.2499999999970868E-05
140,1.41288,-0.00021999999999999797,
142,1.41256,-0.00015999999999993797,2.4999999999997247E-05
144,1.41217,-0.00019500000000005624,
146,1.41177,-0.00019999999999997797,
148,1.41132,-0.00022500000000003073,
150,1.41095,-0.00018499999999999073,1.7500000000003624E-05
152,1.41046,-0.0002449999999999397,
154,1.41007,-0.00019500000000005624,1.4999999999987246E-05
156,1.40975,-0.00015999999999993797,4.250000000000087E-05
158,1.40935,-0.00019999999999997797,
160,1.40902,-0.00016500000000008175,1.4999999999987246E-05
162,1.40875,-0.00013499999999999623,3.249999999999087E-05
164,1.40843,-0.00015999999999993797,
166,1.40814,-0.00014500000000006175,1.0000000000010001E-05
168,1.40782,-0.00015999999999993797,
170,1.40742,-0.000200000000000089,
172,1.40706,-0.00017999999999995797,-1.0000000000010001E-05
174,1.40679,-0.00013499999999999623,3.250000000004638E-05
176,1.40639,-0.00019999999999997797,
178,1.40602,-0.00018499999999999073,-2.500000000016378E-06
180,1.40566,-0.000180000000000069,9.99999999995449E-06
182,1.40536,-0.00014999999999998348,1.7500000000003624E-05
184,1.40511,-0.00012499999999993072,2.7500000000069136E-05
186,1.40478,-0.00016500000000008175,
188,1.40446,-0.00015999999999993797,-4.999999999977245E-06
190,1.40421,-0.00012500000000004174,2.0000000000020002E-05
192,1.40392,-0.00014499999999995072,
194,1.40373,-9.500000000006725E-05,3.249999999993536E-05
196,1.40351,-0.00010999999999994348,
198,1.40324,-0.00013499999999999623,
200,1.40294,-0.00014999999999998348,
202,1.40276,-9.00000000000345E-05,2.7499999999958114E-05
204,1.40245,-0.00015500000000001624,
206,1.40216,-0.00014499999999995072,2.500000000016378E-06
208,1.40196,-9.999999999998899E-05,2.7500000000013625E-05
210,1.40167,-0.00014500000000006175,
212,1.40133,-0.00017000000000000348,
214,1.40104,-0.00014499999999995072,0
216,1.40088,-8.000000000008001E-05,4.499999999996174E-05
218,1.40063,-0.00012499999999993072,
220,1.40047,-7.999999999996898E-05,3.249999999999087E-05
222,1.40022,-0.00012500000000004174,
224,1.40007,-7.500000000004725E-05,2.4999999999941735E-05
226,1.39988,-9.499999999995623E-05,
228,1.39962,-0.00012999999999996348,
230,1.39944,-9.00000000000345E-05,1.7500000000003624E-05
232,1.39929,-7.500000000004725E-05,2.7499999999958114E-05
234,1.39898,-0.00015500000000001624,
236,1.3989,-3.999999999992898E-05,2.5000000000052758E-05
238,1.39864,-0.00012999999999996348,
240,1.39848,-8.000000000008001E-05,3.7499999999968114E-05
242,1.39827,-0.00010500000000002174,
244,1.398,-0.00013499999999999623,
246,1.39782,-8.999999999992347E-05,2.0000000000020002E-05
248,1.39757,-0.00012500000000004174,
250,1.39738,-9.499999999995623E-05,2.0000000000020002E-05
252,1.39717,-0.00010500000000002174,
254,1.39697,-9.999999999998899E-05,1.2500000000026379E-05
256,1.39677,-9.999999999998899E-05,2.500000000016378E-06
258,1.39652,-0.00012500000000004174,
260,1.3964,-5.999999999994898E-05,2.0000000000020002E-05
262,1.3962,-9.999999999998899E-05,
264,1.39598,-0.0001100000000000545,
266,1.39583,-7.500000000004725E-05,2.4999999999997247E-05
268,1.39568,-7.499999999993623E-05,1.7500000000059135E-05
270,1.39537,-0.00015500000000001624,
272,1.39516,-0.00010500000000002174,-1.4999999999987246E-05
274,1.395,-7.999999999996898E-05,3.7500000000023626E-05
274.1,1.394992025,-7.97499999999729E-05,
274.20000000000005,1.394984075,-7.94999999999768E-05,
274.30000000000007,1.39497615,-7.924999999998072E-05,
274.4000000000001,1.39496825,-7.899999999998463E-05,
274.5000000000001,1.394960375,-7.874999999998854E-05,
274.60000000000014,1.3949525249999999,-7.849999999999245E-05,
274.70000000000016,1.3949447,-7.824999999999636E-05,
274.8000000000002,1.3949369,-7.800000000000027E-05,
274.9000000000002,1.394929125,-7.775000000000418E-05,
275.0000000000002,1.394921375,-7.750000000000809E-05,
275.10000000000025,1.3949136500000001,-7.7250000000012E-05,
275.2000000000003,1.39490595,-7.700000000001591E-05,
275.3000000000003,1.394898275,-7.675000000001982E-05,
275.4000000000003,1.3948906250000002,-7.650000000002373E-05,
275.50000000000034,1.394883,-7.625000000002764E-05,
275.60000000000036,1.3948754,-7.600000000003155E-05,
275.7000000000004,1.3948678250000002,-7.575000000003547E-05,
275.8000000000004,1.394860275,-7.550000000003938E-05,
275.90000000000043,1.39485275,-7.525000000004329E-05,
276.00000000000045,1.3948452500000001,-7.50000000000472E-05,
276.1000000000005,1.394837775,-7.475000000005111E-05,
276.2000000000005,1.394830325,-7.450000000005502E-05,
276.3000000000005,1.3948229,-7.425000000005893E-05,
276.40000000000055,1.3948155,-7.400000000006284E-05,
276.50000000000057,1.394808125,-7.375000000006675E-05,
276.6000000000006,1.394800775,-7.350000000007066E-05,
276.7000000000006,1.3947934499999999,-7.325000000007457E-05,
276.80000000000064,1.3947861499999998,-7.300000000007848E-05,
276.90000000000066,1.3947788749999999,-7.275000000008239E-05,
277.0000000000007,1.394771625,-7.25000000000863E-05,
277.1000000000007,1.3947644,-7.225000000009021E-05,
277.2000000000007,1.3947572,-7.200000000009412E-05,
277.30000000000075,1.394750025,-7.175000000009803E-05,
277.4000000000008,1.394742875,-7.150000000010195E-05,
277.5000000000008,1.39473575,-7.125000000010586E-05,
277.6000000000008,1.39472865,-7.100000000010977E-05,
277.70000000000084,1.394721575,-7.075000000011368E-05,
277.80000000000086,1.394714525,-7.050000000011759E-05,
277.9000000000009,1.3947075,-7.02500000001215E-05,
278.0000000000009,1.3947005,-7.000000000012541E-05,
278.10000000000093,1.3946935249999999,-6.975000000012932E-05,
278.20000000000095,1.394686575,-6.950000000013323E-05,
278.300000000001,1.3946796499999998,-6.925000000013714E-05,
278.400000000001,1.3946727499999998,-6.900000000014105E-05,
278.500000000001,1.3946658749999998,-6.875000000014496E-05,
278.60000000000105,1.3946590249999997,-6.850000000014887E-05,
278.70000000000107,1.3946521999999997,-6.825000000015278E-05,
278.8000000000011,1.3946453999999997,-6.80000000001567E-05,
278.9000000000011,1.3946386249999996,-6.77500000001606E-05,
279.00000000000114,1.3946318749999995,-6.750000000016451E-05,
279.10000000000116,1.3946251499999995,-6.725000000016843E-05,
279.2000000000012,1.3946184499999996,-6.700000000017234E-05,
279.3000000000012,1.3946117749999996,-6.675000000017625E-05,
279.4000000000012,1.3946051249999996,-6.650000000018016E-05,
279.50000000000125,1.3945984999999996,-6.625000000018407E-05,
279.6000000000013,1.3945918999999996,-6.600000000018798E-05,
279.7000000000013,1.3945853249999995,-6.575000000019189E-05,
279.8000000000013,1.3945787749999996,-6.55000000001958E-05,
279.90000000000134,1.3945722499999995,-6.525000000019971E-05,
280.00000000000136,1.3945657499999995,-6.500000000020362E-05,
280.1000000000014,1.3945592749999995,-6.475000000020753E-05,
280.2000000000014,1.3945528249999994,-6.450000000021144E-05,
280.30000000000143,1.3945463999999994,-6.425000000021535E-05,
280.40000000000146,1.3945399999999994,-6.400000000021926E-05,
280.5000000000015,1.3945336249999993,-6.375000000022317E-05,
280.6000000000015,1.3945272749999993,-6.350000000022708E-05,
280.7000000000015,1.3945209499999993,-6.3250000000231E-05,
280.80000000000155,1.3945146499999992,-6.30000000002349E-05,
280.90000000000157,1.3945083749999991,-6.275000000023882E-05,
281.0000000000016,1.3945021249999991,-6.250000000024273E-05,
281.1000000000016,1.3944958999999992,-6.225000000024664E-05,
281.20000000000164,1.3944896999999992,-6.200000000025055E-05,
281.30000000000166,1.3944835249999992,-6.175000000025446E-05,
281.4000000000017,1.3944773749999992,-6.150000000025837E-05,
281.5000000000017,1.3944712499999992,-6.125000000026228E-05,
281.6000000000017,1.3944651499999992,-6.100000000026619E-05,
281.70000000000175,1.3944590749999992,-6.07500000002701E-05,
281.8000000000018,1.3944530249999991,-6.050000000027401E-05,
281.9000000000018,1.394446999999999,-6.025000000027792E-05,
282.0000000000018,1.3944409999999992,-6.000000000028183E-05,
282.10000000000184,1.394435024999999,-5.9750000000285744E-05,
282.20000000000186,1.394429074999999,-5.9500000000289654E-05,
282.3000000000019,1.394423149999999,-5.9250000000293565E-05,
282.4000000000019,1.394417249999999,-5.9000000000297476E-05,
282.50000000000193,1.394411374999999,-5.8750000000301386E-05,
282.60000000000196,1.394405524999999,-5.85000000003053E-05,
282.700000000002,1.3943996999999988,-5.825000000030921E-05,
282.800000000002,1.3943938999999987,-5.800000000031312E-05,
282.900000000002,1.3943881249999988,-5.775000000031703E-05,
283.00000000000205,1.3943823749999986,-5.750000000032094E-05,
283.10000000000207,1.3943766499999986,-5.725000000032485E-05,
283.2000000000021,1.3943709499999986,-5.700000000032876E-05,
283.3000000000021,1.3943652749999986,-5.675000000033267E-05,
283.40000000000214,1.3943596249999985,-5.650000000033658E-05,
283.50000000000216,1.3943539999999985,-5.625000000034049E-05,
283.6000000000022,1.3943483999999986,-5.60000000003444E-05,
283.7000000000022,1.3943428249999985,-5.575000000034831E-05,
283.8000000000022,1.3943372749999985,-5.5500000000352224E-05,
283.90000000000225,1.3943317499999985,-5.5250000000356135E-05,
284.0000000000023,1.3943262499999984,-5.5000000000360045E-05,
284.1000000000023,1.3943207749999984,-5.4750000000363956E-05,
284.2000000000023,1.3943153249999984,-5.4500000000367866E-05,
284.30000000000234,1.3943098999999983,-5.425000000037178E-05,
284.40000000000236,1.3943044999999983,-5.400000000037569E-05,
284.5000000000024,1.3942991249999983,-5.37500000003796E-05,
284.6000000000024,1.3942937749999982,-5.350000000038351E-05,
284.70000000000243,1.3942884499999981,-5.325000000038742E-05,
284.80000000000246,1.3942831499999981,-5.300000000039133E-05,
284.9000000000025,1.394277874999998,-5.275000000039524E-05,
285.0000000000025,1.394272624999998,-5.250000000039915E-05,
285.1000000000025,1.394267399999998,-5.225000000040306E-05,
285.20000000000255,1.3942621999999978,-5.200000000040697E-05,
285.30000000000257,1.3942570249999977,-5.175000000041088E-05,
285.4000000000026,1.3942518749999977,-5.1500000000414794E-05,
285.5000000000026,1.3942467499999978,-5.1250000000418704E-05,
285.60000000000264,1.3942416499999977,-5.1000000000422615E-05,
285.70000000000266,1.3942365749999976,-5.0750000000426525E-05,
285.8000000000027,1.3942315249999977,-5.0500000000430436E-05,
285.9000000000027,1.3942264999999976,-5.025000000043435E-05,
286.00000000000273,1.3942214999999976,-5.000000000043826E-05,
286.10000000000275,1.3942165249999976,-4.975000000044217E-05,
286.2000000000028,1.3942115749999975,-4.950000000044608E-05,
286.3000000000028,1.3942066499999974,-4.925000000044999E-05,
286.4000000000028,1.3942017499999975,-4.90000000004539E-05,
286.50000000000284,1.3941968749999973,-4.875000000045781E-05,
286.60000000000286,1.3941920249999973,-4.850000000046172E-05,
286.7000000000029,1.3941871999999973,-4.825000000046563E-05,
286.8000000000029,1.3941823999999972,-4.800000000046954E-05,
286.90000000000293,1.394177624999997,-4.775000000047345E-05,
287.00000000000296,1.394172874999997,-4.750000000047736E-05,
287.100000000003,1.394168149999997,-4.7250000000481274E-05,
287.200000000003,1.3941634499999969,-4.7000000000485184E-05,
287.300000000003,1.3941587749999969,-4.6750000000489095E-05,
287.40000000000305,1.394154124999997,-4.6500000000493006E-05,
287.50000000000307,1.3941494999999968,-4.6250000000496916E-05,
287.6000000000031,1.3941448999999968,-4.600000000050083E-05,
287.7000000000031,1.3941403249999968,-4.575000000050474E-05,
287.80000000000314,1.3941357749999967,-4.550000000050865E-05,
287.90000000000316,1.3941312499999967,-4.525000000051256E-05,
288.0000000000032,1.3941267499999968,-4.500000000051647E-05,
288.1000000000032,1.3941222749999966,-4.475000000052038E-05,
288.20000000000323,1.3941178249999966,-4.450000000052429E-05,
288.30000000000325,1.3941133999999966,-4.42500000005282E-05,
288.4000000000033,1.3941089999999965,-4.400000000053211E-05,
288.5000000000033,1.3941046249999964,-4.375000000053602E-05,
288.6000000000033,1.3941002749999964,-4.350000000053993E-05,
288.70000000000334,1.3940959499999963,-4.3250000000543844E-05,
288.80000000000337,1.3940916499999962,-4.3000000000547754E-05,
288.9000000000034,1.3940873749999962,-4.2750000000551665E-05,
289.0000000000034,1.394083124999996,-4.2500000000555575E-05,
289.10000000000343,1.394078899999996,-4.2250000000559486E-05,
289.20000000000346,1.394074699999996,-4.2000000000563397E-05,
289.3000000000035,1.3940705249999958,-4.175000000056731E-05,
289.4000000000035,1.3940663749999957,-4.150000000057122E-05,
289.5000000000035,1.3940622499999957,-4.125000000057513E-05,
289.60000000000355,1.3940581499999958,-4.100000000057904E-05,
289.70000000000357,1.3940540749999957,-4.075000000058295E-05,
289.8000000000036,1.3940500249999956,-4.050000000058686E-05,
289.9000000000036,1.3940459999999957,-4.025000000059077E-05,
290.00000000000364,1.3940419999999956,-4.000000000059468E-05,
290.10000000000366,1.3940380249999955,-3.975000000059859E-05,
290.2000000000037,1.3940340749999955,-3.95000000006025E-05,
290.3000000000037,1.3940301499999954,-3.925000000060641E-05,
290.40000000000373,1.3940262499999954,-3.9000000000610324E-05,
290.50000000000375,1.3940223749999954,-3.8750000000614234E-05,
290.6000000000038,1.3940185249999952,-3.8500000000618145E-05,
290.7000000000038,1.3940146999999952,-3.8250000000622056E-05,
290.8000000000038,1.3940108999999952,-3.8000000000625966E-05,
290.90000000000384,1.394007124999995,-3.775000000062988E-05,
291.00000000000387,1.394003374999995,-3.750000000063379E-05,
291.1000000000039,1.393999649999995,-3.72500000006377E-05,
291.2000000000039,1.3939959499999948,-3.700000000064161E-05,
291.30000000000393,1.3939922749999947,-3.675000000064552E-05,
291.40000000000396,1.3939886249999947,-3.650000000064943E-05,
291.500000000004,1.3939849999999945,-3.625000000065334E-05,
291.600000000004,1.3939813999999944,-3.600000000065725E-05,
291.700000000004,1.3939778249999943,-3.575000000066116E-05,
291.80000000000405,1.3939742749999944,-3.550000000066507E-05,
291.90000000000407,1.3939707499999943,-3.525000000066898E-05,
292.0000000000041,1.3939672499999942,-3.5000000000672893E-05,
292.1000000000041,1.3939637749999942,-3.4750000000676804E-05,
292.20000000000414,1.3939603249999941,-3.4500000000680715E-05,
292.30000000000416,1.393956899999994,-3.4250000000684625E-05,
292.4000000000042,1.393953499999994,-3.4000000000688536E-05,
292.5000000000042,1.393950124999994,-3.3750000000692446E-05,
292.60000000000423,1.3939467749999939,-3.350000000069636E-05,
292.70000000000425,1.3939434499999939,-3.325000000070027E-05,
292.8000000000043,1.3939401499999937,-3.300000000070418E-05,
292.9000000000043,1.3939368749999936,-3.275000000070809E-05,
293.0000000000043,1.3939336249999936,-3.2500000000712E-05,
293.10000000000434,1.3939303999999935,-3.225000000071591E-05,
293.20000000000437,1.3939271999999934,-3.200000000071982E-05,
293.3000000000044,1.3939240249999933,-3.175000000072373E-05,
293.4000000000044,1.3939208749999932,-3.150000000072764E-05,
293.50000000000443,1.393917749999993,-3.125000000073155E-05,
293.60000000000446,1.393914649999993,-3.100000000073546E-05,
293.7000000000045,1.393911574999993,-3.0750000000739374E-05,
293.8000000000045,1.393908524999993,-3.0500000000743288E-05,
293.9000000000045,1.393905499999993,-3.0250000000747202E-05,
294.00000000000455,1.393902499999993,-3.0000000000751116E-05,
294.10000000000457,1.3938995249999928,-2.975000000075503E-05,
294.2000000000046,1.3938965749999928,-2.9500000000758944E-05,
294.3000000000046,1.3938936499999928,-2.9250000000762858E-05,
294.40000000000464,1.3938907499999926,-2.900000000076677E-05,
294.50000000000466,1.3938878749999926,-2.8750000000770686E-05,
294.6000000000047,1.3938850249999926,-2.85000000007746E-05,
294.7000000000047,1.3938821999999924,-2.8250000000778514E-05,
294.80000000000473,1.3938793999999923,-2.8000000000782428E-05,
294.90000000000475,1.3938766249999923,-2.775000000078634E-05,
295.0000000000048,1.3938738749999922,-2.7500000000790256E-05,
295.1000000000048,1.393871149999992,-2.725000000079417E-05,
295.2000000000048,1.393868449999992,-2.7000000000798084E-05,
295.30000000000484,1.3938657749999919,-2.6750000000801998E-05,
295.40000000000487,1.3938631249999918,-2.650000000080591E-05,
295.5000000000049,1.3938604999999917,-2.6250000000809826E-05,
295.6000000000049,1.3938578999999915,-2.600000000081374E-05,
295.70000000000493,1.3938553249999914,-2.5750000000817654E-05,
295.80000000000496,1.3938527749999914,-2.5500000000821568E-05,
295.900000000005,1.3938502499999914,-2.525000000082548E-05,
