  Time Stress
  0.00   4.18298000
  0.10   4.17313274
  0.20   4.16368112
  0.30   4.15460758
  0.40   4.14589532
  0.50   4.13752830
  0.60   4.12949122
  0.70   4.12176944
  0.80   4.11434901
  0.90   4.10721657
  1.00   4.10035940
  1.10   4.09376532
  1.20   4.08742272
  1.30   4.08132050
  1.40   4.07544806
  1.50   4.06979528
  1.60   4.06435248
  1.70   4.05911045
  1.80   4.05406035
  1.90   4.04919377
  2.00   4.04450267
  2.10   4.03997935
  2.20   4.03561648
  2.30   4.03140706
  2.40   4.02734439
  2.50   4.02342207
  2.60   4.01963401
  2.70   4.01597435
  2.80   4.01243755
  2.90   4.00901827
  3.00   4.00571142
  3.10   4.00251217
  3.20   3.99941586
  3.30   3.99641807
  3.40   3.99351457
  3.50   3.99070131
  3.60   3.98797444
  3.70   3.98533026
  3.80   3.98276526
  3.90   3.98027607
  4.00   3.97785947
  4.10   3.97551239
  4.20   3.97323190
  4.30   3.97101519
  4.40   3.96885959
  4.50   3.96676254
  4.60   3.96472160
  4.70   3.96273442
  4.80   3.96079878
  4.90   3.95891255
  5.00   3.95707369
  5.10   3.95528025
  5.20   3.95353038
  5.30   3.95182230
  5.40   3.95015431
  5.50   3.94852479
  5.60   3.94693218
  5.70   3.94537501
  5.80   3.94385186
  5.90   3.94236138
  6.00   3.94090228
  6.10   3.93947331
  6.20   3.93807331
  6.30   3.93670113
  6.40   3.93535570
  6.50   3.93403599
  6.60   3.93274102
  6.70   3.93146983
  6.80   3.93022153
  6.90   3.92899526
  7.00   3.92779019
  7.10   3.92660554
  7.20   3.92544055
  7.30   3.92429451
  7.40   3.92316671
  7.50   3.92205652
  7.60   3.92096329
  7.70   3.91988642
  7.80   3.91882535
  7.90   3.91777950
  8.00   3.91674837
  8.10   3.91573144
  8.20   3.91472824
  8.30   3.91373829
  8.40   3.91276117
  8.50   3.91179644
  8.60   3.91084370
  8.70   3.90990256
  8.80   3.90897266
  8.90   3.90805363
  9.00   3.90714515
  9.10   3.90624687
  9.20   3.90535850
  9.30   3.90447973
  9.40   3.90361028
  9.50   3.90274987
  9.60   3.90189824
  9.70   3.90105514
  9.80   3.90022032
  9.90   3.89939357
 10.00   3.89857465
 10.10   3.89776336
 10.20   3.89695949
 10.30   3.89616285
 10.40   3.89537324
 10.50   3.89459049
 10.60   3.89381443
 10.70   3.89304490
 10.80   3.89228172
 10.90   3.89152476
 11.00   3.89077387
 11.10   3.89002890
 11.20   3.88928972
 11.30   3.88855620
 11.40   3.88782822
 11.50   3.88710565
 11.60   3.88638839
 11.70   3.88567632
 11.80   3.88496934
 11.90   3.88426734
 12.00   3.88357023
 12.10   3.88287790
 12.20   3.88219028
 12.30   3.88150727
 12.40   3.88082878
 12.50   3.88015474
 12.60   3.87948507
 12.70   3.87881970
 12.80   3.87815854
 12.90   3.87750153
 13.00   3.87684860
 13.10   3.87619969
 13.20   3.87555473
 13.30   3.87491367
 13.40   3.87427643
 13.50   3.87364297
 13.60   3.87301324
 13.70   3.87238717
 13.80   3.87176471
 13.90   3.87114583
 14.00   3.87053046
 14.10   3.86991856
 14.20   3.86931009
 14.30   3.86870500
 14.40   3.86810325
 14.50   3.86750480
 14.60   3.86690961
 14.70   3.86631764
 14.80   3.86572885
 14.90   3.86514320
 15.00   3.86456066
 15.10   3.86398120
 15.20   3.86340479
 15.30   3.86283138
 15.40   3.86226094
 15.50   3.86169346
 15.60   3.86112888
 15.70   3.86056720
 15.80   3.86000837
 15.90   3.85945237
 16.00   3.85889918
 16.10   3.85834876
 16.20   3.85780109
 16.30   3.85725614
 16.40   3.85671389
 16.50   3.85617432
 16.60   3.85563740
 16.70   3.85510311
 16.80   3.85457142
 16.90   3.85404231
 17.00   3.85351577
 17.10   3.85299177
 17.20   3.85247028
 17.30   3.85195129
 17.40   3.85143479
 17.50   3.85092074
 17.60   3.85040913
 17.70   3.84989994
 17.80   3.84939315
 17.90   3.84888874
 18.00   3.84838670
 18.10   3.84788700
 18.20   3.84738964
 18.30   3.84689459
 18.40   3.84640183
 18.50   3.84591135
 18.60   3.84542313
 18.70   3.84493716
 18.80   3.84445342
 18.90   3.84397190
 19.00   3.84349257
 19.10   3.84301543
 19.20   3.84254046
 19.30   3.84206764
 19.40   3.84159696
 19.50   3.84112840
 19.60   3.84066196
 19.70   3.84019761
 19.80   3.83973534
 19.90   3.83927515
 20.00   3.83881700
 20.10   3.83836090
 20.20   3.83790683
 20.30   3.83745478
 20.40   3.83700472
 20.50   3.83655666
 20.60   3.83611057
 20.70   3.83566645
 20.80   3.83522428
 20.90   3.83478404
 21.00   3.83434574
 21.10   3.83390935
 21.20   3.83347486
 21.30   3.83304227
 21.40   3.83261155
 21.50   3.83218271
 21.60   3.83175572
 21.70   3.83133057
 21.80   3.83090726
 21.90   3.83048577
 22.00   3.83006610
 22.10   3.82964822
 22.20   3.82923213
 22.30   3.82881783
 22.40   3.82840529
 22.50   3.82799450
 22.60   3.82758547
 22.70   3.82717817
 22.80   3.82677260
 22.90   3.82636875
 23.00   3.82596660
 23.10   3.82556614
 23.20   3.82516737
 23.30   3.82477028
 23.40   3.82437485
 23.50   3.82398108
 23.60   3.82358895
 23.70   3.82319847
 23.80   3.82280960
 23.90   3.82242236
 24.00   3.82203672
 24.10   3.82165268
 24.20   3.82127023
 24.30   3.82088936
 24.40   3.82051007
 24.50   3.82013233
 24.60   3.81975614
 24.70   3.81938150
 24.80   3.81900840
 24.90   3.81863682
 25.00   3.81826675
 25.10   3.81789820
 25.20   3.81753114
 25.30   3.81716557
 25.40   3.81680149
 25.50   3.81643888
 25.60   3.81607774
 25.70   3.81571805
 25.80   3.81535981
 25.90   3.81500301
 26.00   3.81464764
 26.10   3.81429370
 26.20   3.81394117
 26.30   3.81359005
 26.40   3.81324033
 26.50   3.81289200
 26.60   3.81254506
 26.70   3.81219948
 26.80   3.81185528
 26.90   3.81151244
 27.00   3.81117095
 27.10   3.81083080
 27.20   3.81049200
 27.30   3.81015452
 27.40   3.80981836
 27.50   3.80948352
 27.60   3.80914998
 27.70   3.80881774
 27.80   3.80848680
 27.90   3.80815714
 28.00   3.80782876
 28.10   3.80750165
 28.20   3.80717580
 28.30   3.80685121
 28.40   3.80652787
 28.50   3.80620577
 28.60   3.80588490
 28.70   3.80556526
 28.80   3.80524685
 28.90   3.80492964
 29.00   3.80461365
 29.10   3.80429885
 29.20   3.80398525
 29.30   3.80367284
 29.40   3.80336161
 29.50   3.80305155
 29.60   3.80274266
 29.70   3.80243493
 29.80   3.80212835
 29.90   3.80182292
 30.00   3.80151864
 30.10   3.80121548
 30.20   3.80091346
 30.30   3.80061256
 30.40   3.80031277
 30.50   3.80001410
 30.60   3.79971653
 30.70   3.79942005
 30.80   3.79912467
 30.90   3.79883037
 31.00   3.79853716
 31.10   3.79824501
 31.20   3.79795393
 31.30   3.79766392
 31.40   3.79737496
 31.50   3.79708705
 31.60   3.79680018
 31.70   3.79651435
 31.80   3.79622955
 31.90   3.79594578
 32.00   3.79566303
 32.10   3.79538130
 32.20   3.79510057
 32.30   3.79482085
 32.40   3.79454213
 32.50   3.79426440
 32.60   3.79398766
 32.70   3.79371190
 32.80   3.79343711
 32.90   3.79316330
 33.00   3.79289045
 33.10   3.79261856
 33.20   3.79234763
 33.30   3.79207765
 33.40   3.79180861
 33.50   3.79154051
 33.60   3.79127334
 33.70   3.79100711
 33.80   3.79074179
 33.90   3.79047740
 34.00   3.79021392
 34.10   3.78995135
 34.20   3.78968968
 34.30   3.78942891
 34.40   3.78916904
 34.50   3.78891005
 34.60   3.78865195
 34.70   3.78839473
 34.80   3.78813838
 34.90   3.78788290
 35.00   3.78762829
 35.10   3.78737453
 35.20   3.78712163
 35.30   3.78686959
 35.40   3.78661839
 35.50   3.78636802
 35.60   3.78611850
 35.70   3.78586981
 35.80   3.78562195
 35.90   3.78537491
 36.00   3.78512868
 36.10   3.78488328
 36.20   3.78463868
 36.30   3.78439489
 36.40   3.78415189
 36.50   3.78390970
 36.60   3.78366830
 36.70   3.78342768
 36.80   3.78318785
 36.90   3.78294880
 37.00   3.78271052
 37.10   3.78247302
 37.20   3.78223628
 37.30   3.78200031
 37.40   3.78176509
 37.50   3.78153063
 37.60   3.78129692
 37.70   3.78106395
 37.80   3.78083173
 37.90   3.78060024
 38.00   3.78036949
 38.10   3.78013947
 38.20   3.77991018
 38.30   3.77968160
 38.40   3.77945375
 38.50   3.77922661
 38.60   3.77900019
 38.70   3.77877447
 38.80   3.77854945
 38.90   3.77832513
 39.00   3.77810151
 39.10   3.77787858
 39.20   3.77765634
 39.30   3.77743478
 39.40   3.77721391
 39.50   3.77699371
 39.60   3.77677418
 39.70   3.77655533
 39.80   3.77633714
 39.90   3.77611961
 40.00   3.77590274
 40.10   3.77568653
 40.20   3.77547097
 40.30   3.77525606
 40.40   3.77504180
 40.50   3.77482818
 40.60   3.77461519
 40.70   3.77440285
 40.80   3.77419113
 40.90   3.77398004
 41.00   3.77376958
 41.10   3.77355973
 41.20   3.77335051
 41.30   3.77314190
 41.40   3.77293390
 41.50   3.77272652
 41.60   3.77251973
 41.70   3.77231355
 41.80   3.77210797
 41.90   3.77190299
 42.00   3.77169859
 42.10   3.77149479
 42.20   3.77129157
 42.30   3.77108894
 42.40   3.77088689
 42.50   3.77068541
 42.60   3.77048451
 42.70   3.77028418
 42.80   3.77008442
 42.90   3.76988522
 43.00   3.76968659
 43.10   3.76948851
 43.20   3.76929099
 43.30   3.76909402
 43.40   3.76889761
 43.50   3.76870174
 43.60   3.76850642
 43.70   3.76831164
 43.80   3.76811740
 43.90   3.76792369
 44.00   3.76773052
 44.10   3.76753788
 44.20   3.76734576
 44.30   3.76715418
 44.40   3.76696311
 44.50   3.76677256
 44.60   3.76658254
 44.70   3.76639302
 44.80   3.76620402
 44.90   3.76601552
 45.00   3.76582754
 45.10   3.76564005
 45.20   3.76545307
 45.30   3.76526659
 45.40   3.76508060
 45.50   3.76489510
 45.60   3.76471010
 45.70   3.76452559
 45.80   3.76434156
 45.90   3.76415801
 46.00   3.76397495
 46.10   3.76379236
 46.20   3.76361025
 46.30   3.76342861
 46.40   3.76324744
 46.50   3.76306675
 46.60   3.76288652
 46.70   3.76270675
 46.80   3.76252744
 46.90   3.76234860
 47.00   3.76217021
 47.10   3.76199227
 47.20   3.76181479
 47.30   3.76163775
 47.40   3.76146117
 47.50   3.76128503
 47.60   3.76110933
 47.70   3.76093407
 47.80   3.76075925
 47.90   3.76058487
 48.00   3.76041092
 48.10   3.76023740
 48.20   3.76006432
 48.30   3.75989166
 48.40   3.75971942
 48.50   3.75954761
 48.60   3.75937622
 48.70   3.75920525
 48.80   3.75903470
 48.90   3.75886456
 49.00   3.75869483
 49.10   3.75852552
 49.20   3.75835661
 49.30   3.75818811
 49.40   3.75802001
 49.50   3.75785232
 49.60   3.75768503
 49.70   3.75751813
 49.80   3.75735163
 49.90   3.75718553
 50.00   3.75701981
 50.10   3.75685449
 50.20   3.75668956
 50.30   3.75652501
 50.40   3.75636085
 50.50   3.75619707
 50.60   3.75603368
 50.70   3.75587066
 50.80   3.75570801
 50.90   3.75554575
 51.00   3.75538386
 51.10   3.75522233
 51.20   3.75506118
 51.30   3.75490040
 51.40   3.75473998
 51.50   3.75457993
 51.60   3.75442023
 51.70   3.75426090
 51.80   3.75410193
 51.90   3.75394332
 52.00   3.75378506
 52.10   3.75362715
 52.20   3.75346960
 52.30   3.75331240
 52.40   3.75315554
 52.50   3.75299904
 52.60   3.75284287
 52.70   3.75268706
 52.80   3.75253158
 52.90   3.75237644
 53.00   3.75222164
 53.10   3.75206718
 53.20   3.75191306
 53.30   3.75175926
 53.40   3.75160580
 53.50   3.75145267
 53.60   3.75129987
 53.70   3.75114739
 53.80   3.75099525
 53.90   3.75084342
 54.00   3.75069192
 54.10   3.75054074
 54.20   3.75038988
 54.30   3.75023933
 54.40   3.75008910
 54.50   3.74993919
 54.60   3.74978959
 54.70   3.74964030
 54.80   3.74949133
 54.90   3.74934266
 55.00   3.74919430
 55.10   3.74904624
 55.20   3.74889849
 55.30   3.74875104
 55.40   3.74860390
 55.50   3.74845705
 55.60   3.74831051
 55.70   3.74816426
 55.80   3.74801830
 55.90   3.74787264
 56.00   3.74772728
 56.10   3.74758220
 56.20   3.74743742
 56.30   3.74729293
 56.40   3.74714872
 56.50   3.74700480
 56.60   3.74686116
 56.70   3.74671781
 56.80   3.74657474
 56.90   3.74643196
 57.00   3.74628945
 57.10   3.74614722
 57.20   3.74600526
 57.30   3.74586359
 57.40   3.74572218
 57.50   3.74558106
 57.60   3.74544020
 57.70   3.74529961
 57.80   3.74515930
 57.90   3.74501925
 58.00   3.74487947
 58.10   3.74473995
 58.20   3.74460070
 58.30   3.74446171
 58.40   3.74432299
 58.50   3.74418452
 58.60   3.74404632
 58.70   3.74390838
 58.80   3.74377069
 58.90   3.74363326
 59.00   3.74349608
 59.10   3.74335916
 59.20   3.74322249
 59.30   3.74308607
 59.40   3.74294990
 59.50   3.74281398
 59.60   3.74267831
 59.70   3.74254289
 59.80   3.74240771
 59.90   3.74227278
 60.00   3.74213809
 60.10   3.74200365
 60.20   3.74186944
 60.30   3.74173548
 60.40   3.74160176
 60.50   3.74146827
 60.60   3.74133502
 60.70   3.74120201
 60.80   3.74106924
 60.90   3.74093670
 61.00   3.74080439
 61.10   3.74067231
 61.20   3.74054046
 61.30   3.74040885
 61.40   3.74027746
 61.50   3.74014630
 61.60   3.74001537
 61.70   3.73988467
 61.80   3.73975419
 61.90   3.73962393
 62.00   3.73949390
 62.10   3.73936409
 62.20   3.73923450
 62.30   3.73910513
 62.40   3.73897598
 62.50   3.73884705
 62.60   3.73871834
 62.70   3.73858984
 62.80   3.73846156
 62.90   3.73833349
 63.00   3.73820563
 63.10   3.73807799
 63.20   3.73795056
 63.30   3.73782334
 63.40   3.73769633
 63.50   3.73756954
 63.60   3.73744294
 63.70   3.73731656
 63.80   3.73719038
 63.90   3.73706441
 64.00   3.73693864
 64.10   3.73681308
 64.20   3.73668772
 64.30   3.73656256
 64.40   3.73643760
 64.50   3.73631284
 64.60   3.73618829
 64.70   3.73606393
 64.80   3.73593977
 64.90   3.73581580
 65.00   3.73569203
 65.10   3.73556846
 65.20   3.73544508
 65.30   3.73532190
 65.40   3.73519891
 65.50   3.73507611
 65.60   3.73495350
 65.70   3.73483108
 65.80   3.73470885
 65.90   3.73458682
 66.00   3.73446496
 66.10   3.73434330
 66.20   3.73422183
 66.30   3.73410053
 66.40   3.73397943
 66.50   3.73385851
 66.60   3.73373777
 66.70   3.73361722
 66.80   3.73349684
 66.90   3.73337665
 67.00   3.73325664
 67.10   3.73313681
 67.20   3.73301716
 67.30   3.73289769
 67.40   3.73277839
 67.50   3.73265927
 67.60   3.73254033
 67.70   3.73242156
 67.80   3.73230297
 67.90   3.73218456
 68.00   3.73206631
 68.10   3.73194824
 68.20   3.73183034
 68.30   3.73171261
 68.40   3.73159506
 68.50   3.73147767
 68.60   3.73136045
 68.70   3.73124340
 68.80   3.73112652
 68.90   3.73100981
 69.00   3.73089326
 69.10   3.73077688
 69.20   3.73066067
 69.30   3.73054462
 69.40   3.73042873
 69.50   3.73031301
 69.60   3.73019745
 69.70   3.73008205
 69.80   3.72996682
 69.90   3.72985174
 70.00   3.72973683
 70.10   3.72962207
 70.20   3.72950748
 70.30   3.72939304
 70.40   3.72927876
 70.50   3.72916464
 70.60   3.72905068
 70.70   3.72893687
 70.80   3.72882321
 70.90   3.72870972
 71.00   3.72859637
 71.10   3.72848318
 71.20   3.72837014
 71.30   3.72825726
 71.40   3.72814453
 71.50   3.72803195
 71.60   3.72791952
 71.70   3.72780724
 71.80   3.72769511
 71.90   3.72758312
 72.00   3.72747129
 72.10   3.72735961
 72.20   3.72724807
 72.30   3.72713668
 72.40   3.72702544
 72.50   3.72691434
 72.60   3.72680339
 72.70   3.72669258
 72.80   3.72658192
 72.90   3.72647140
 73.00   3.72636102
 73.10   3.72625079
 73.20   3.72614070
 73.30   3.72603075
 73.40   3.72592094
 73.50   3.72581128
 73.60   3.72570175
 73.70   3.72559236
 73.80   3.72548311
 73.90   3.72537400
 74.00   3.72526503
 74.10   3.72515620
 74.20   3.72504750
 74.30   3.72493894
 74.40   3.72483052
 74.50   3.72472223
 74.60   3.72461408
 74.70   3.72450606
 74.80   3.72439817
 74.90   3.72429042
 75.00   3.72418281
 75.10   3.72407532
 75.20   3.72396797
 75.30   3.72386075
 75.40   3.72375366
 75.50   3.72364671
 75.60   3.72353988
 75.70   3.72343318
 75.80   3.72332662
 75.90   3.72322018
 76.00   3.72311387
 76.10   3.72300769
 76.20   3.72290164
 76.30   3.72279571
 76.40   3.72268991
 76.50   3.72258424
 76.60   3.72247870
 76.70   3.72237328
 76.80   3.72226798
 76.90   3.72216281
 77.00   3.72205777
 77.10   3.72195285
 77.20   3.72184805
 77.30   3.72174338
 77.40   3.72163882
 77.50   3.72153440
 77.60   3.72143009
 77.70   3.72132590
 77.80   3.72122184
 77.90   3.72111790
 78.00   3.72101407
 78.10   3.72091037
 78.20   3.72080679
 78.30   3.72070332
 78.40   3.72059998
 78.50   3.72049675
 78.60   3.72039364
 78.70   3.72029065
 78.80   3.72018777
 78.90   3.72008502
 79.00   3.71998237
 79.10   3.71987985
 79.20   3.71977744
 79.30   3.71967515
 79.40   3.71957297
 79.50   3.71947090
 79.60   3.71936895
 79.70   3.71926712
 79.80   3.71916540
 79.90   3.71906379
 80.00   3.71896229
 80.10   3.71886091
 80.20   3.71875963
 80.30   3.71865847
 80.40   3.71855743
 80.50   3.71845649
 80.60   3.71835566
 80.70   3.71825494
 80.80   3.71815434
 80.90   3.71805384
 81.00   3.71795345
 81.10   3.71785318
 81.20   3.71775301
 81.30   3.71765294
 81.40   3.71755299
 81.50   3.71745315
 81.60   3.71735341
 81.70   3.71725378
 81.80   3.71715425
 81.90   3.71705483
 82.00   3.71695552
 82.10   3.71685631
 82.20   3.71675721
 82.30   3.71665822
 82.40   3.71655933
 82.50   3.71646054
 82.60   3.71636186
 82.70   3.71626328
 82.80   3.71616480
 82.90   3.71606643
 83.00   3.71596816
 83.10   3.71587000
 83.20   3.71577193
 83.30   3.71567397
 83.40   3.71557611
 83.50   3.71547835
 83.60   3.71538070
 83.70   3.71528314
 83.80   3.71518568
 83.90   3.71508833
 84.00   3.71499107
 84.10   3.71489392
 84.20   3.71479686
 84.30   3.71469990
 84.40   3.71460304
 84.50   3.71450628
 84.60   3.71440962
 84.70   3.71431306
 84.80   3.71421659
 84.90   3.71412022
 85.00   3.71402395
 85.10   3.71392778
 85.20   3.71383170
 85.30   3.71373572
 85.40   3.71363983
 85.50   3.71354404
 85.60   3.71344835
 85.70   3.71335275
 85.80   3.71325725
 85.90   3.71316184
 86.00   3.71306652
 86.10   3.71297130
 86.20   3.71287618
 86.30   3.71278115
 86.40   3.71268621
 86.50   3.71259136
 86.60   3.71249661
 86.70   3.71240195
 86.80   3.71230738
 86.90   3.71221291
 87.00   3.71211852
 87.10   3.71202423
 87.20   3.71193003
 87.30   3.71183592
 87.40   3.71174190
 87.50   3.71164798
 87.60   3.71155414
 87.70   3.71146040
 87.80   3.71136674
 87.90   3.71127317
 88.00   3.71117970
 88.10   3.71108631
 88.20   3.71099301
 88.30   3.71089980
 88.40   3.71080668
 88.50   3.71071365
 88.60   3.71062071
 88.70   3.71052785
 88.80   3.71043508
 88.90   3.71034240
 89.00   3.71024981
 89.10   3.71015730
 89.20   3.71006488
 89.30   3.70997255
 89.40   3.70988030
 89.50   3.70978814
 89.60   3.70969607
 89.70   3.70960408
 89.80   3.70951218
 89.90   3.70942036
 90.00   3.70932863
 90.10   3.70923698
 90.20   3.70914542
 90.30   3.70905394
 90.40   3.70896255
 90.50   3.70887124
 90.60   3.70878001
 90.70   3.70868887
 90.80   3.70859781
 90.90   3.70850684
 91.00   3.70841595
 91.10   3.70832514
 91.20   3.70823441
 91.30   3.70814377
 91.40   3.70805321
 91.50   3.70796273
 91.60   3.70787233
 91.70   3.70778201
 91.80   3.70769178
 91.90   3.70760163
 92.00   3.70751155
 92.10   3.70742156
 92.20   3.70733165
 92.30   3.70724182
 92.40   3.70715207
 92.50   3.70706240
 92.60   3.70697282
 92.70   3.70688331
 92.80   3.70679388
 92.90   3.70670453
 93.00   3.70661526
 93.10   3.70652606
 93.20   3.70643695
 93.30   3.70634792
 93.40   3.70625896
 93.50   3.70617008
 93.60   3.70608128
 93.70   3.70599256
 93.80   3.70590392
 93.90   3.70581536
 94.00   3.70572687
 94.10   3.70563846
 94.20   3.70555012
 94.30   3.70546187
 94.40   3.70537369
 94.50   3.70528558
 94.60   3.70519756
 94.70   3.70510961
 94.80   3.70502173
 94.90   3.70493394
 95.00   3.70484621
 95.10   3.70475857
 95.20   3.70467100
 95.30   3.70458350
 95.40   3.70449608
 95.50   3.70440873
 95.60   3.70432146
 95.70   3.70423427
 95.80   3.70414714
 95.90   3.70406010
 96.00   3.70397312
 96.10   3.70388623
 96.20   3.70379940
 96.30   3.70371265
 96.40   3.70362597
 96.50   3.70353937
 96.60   3.70345284
 96.70   3.70336638
 96.80   3.70327999
 96.90   3.70319368
 97.00   3.70310744
 97.10   3.70302127
 97.20   3.70293518
 97.30   3.70284916
 97.40   3.70276321
 97.50   3.70267733
 97.60   3.70259152
 97.70   3.70250579
 97.80   3.70242012
 97.90   3.70233453
 98.00   3.70224901
 98.10   3.70216356
 98.20   3.70207818
 98.30   3.70199287
 98.40   3.70190764
 98.50   3.70182247
 98.60   3.70173737
 98.70   3.70165235
 98.80   3.70156739
 98.90   3.70148251
 99.00   3.70139769
 99.10   3.70131294
 99.20   3.70122827
 99.30   3.70114366
 99.40   3.70105912
 99.50   3.70097465
 99.60   3.70089025
 99.70   3.70080592
 99.80   3.70072166
