  Time Stress
  0.00   0.93062000
  0.10   0.92804667
  0.20   0.92559806
  0.30   0.92326765
  0.40   0.92104926
  0.50   0.91893704
  0.60   0.91692545
  0.70   0.91500925
  0.80   0.91318345
  0.90   0.91144335
  1.00   0.90978449
  1.10   0.90820263
  1.20   0.90669378
  1.30   0.90525414
  1.40   0.90388011
  1.50   0.90256829
  1.60   0.90131545
  1.70   0.90011855
  1.80   0.89897468
  1.90   0.89788110
  2.00   0.89683522
  2.10   0.89583457
  2.20   0.89487682
  2.30   0.89395976
  2.40   0.89308130
  2.50   0.89223946
  2.60   0.89143236
  2.70   0.89065822
  2.80   0.88991535
  2.90   0.88920215
  3.00   0.88851712
  3.10   0.88785881
  3.20   0.88722588
  3.30   0.88661702
  3.40   0.88603103
  3.50   0.88546675
  3.60   0.88492307
  3.70   0.88439897
  3.80   0.88389347
  3.90   0.88340562
  4.00   0.88293455
  4.10   0.88247942
  4.20   0.88203944
  4.30   0.88161386
  4.40   0.88120196
  4.50   0.88080307
  4.60   0.88041656
  4.70   0.88004181
  4.80   0.87967825
  4.90   0.87932534
  5.00   0.87898257
  5.10   0.87864944
  5.20   0.87832549
  5.30   0.87801028
  5.40   0.87770339
  5.50   0.87740444
  5.60   0.87711305
  5.70   0.87682885
  5.80   0.87655153
  5.90   0.87628075
  6.00   0.87601621
  6.10   0.87575764
  6.20   0.87550475
  6.30   0.87525729
  6.40   0.87501502
  6.50   0.87477771
  6.60   0.87454513
  6.70   0.87431707
  6.80   0.87409335
  6.90   0.87387376
  7.00   0.87365814
  7.10   0.87344631
  7.20   0.87323812
  7.30   0.87303342
  7.40   0.87283205
  7.50   0.87263389
  7.60   0.87243879
  7.70   0.87224665
  7.80   0.87205734
  7.90   0.87187076
  8.00   0.87168679
  8.10   0.87150533
  8.20   0.87132630
  8.30   0.87114960
  8.40   0.87097515
  8.50   0.87080286
  8.60   0.87063266
  8.70   0.87046447
  8.80   0.87029823
  8.90   0.87013386
  9.00   0.86997131
  9.10   0.86981051
  9.20   0.86965141
  9.30   0.86949395
  9.40   0.86933809
  9.50   0.86918376
  9.60   0.86903094
  9.70   0.86887956
  9.80   0.86872959
  9.90   0.86858100
 10.00   0.86843373
 10.10   0.86828775
 10.20   0.86814304
 10.30   0.86799955
 10.40   0.86785725
 10.50   0.86771612
 10.60   0.86757612
 10.70   0.86743723
 10.80   0.86729942
 10.90   0.86716267
 11.00   0.86702694
 11.10   0.86689223
 11.20   0.86675851
 11.30   0.86662575
 11.40   0.86649393
 11.50   0.86636305
 11.60   0.86623307
 11.70   0.86610399
 11.80   0.86597577
 11.90   0.86584842
 12.00   0.86572191
 12.10   0.86559623
 12.20   0.86547136
 12.30   0.86534729
 12.40   0.86522401
 12.50   0.86510151
 12.60   0.86497976
 12.70   0.86485877
 12.80   0.86473852
 12.90   0.86461899
 13.00   0.86450018
 13.10   0.86438209
 13.20   0.86426469
 13.30   0.86414797
 13.40   0.86403194
 13.50   0.86391659
 13.60   0.86380189
 13.70   0.86368785
 13.80   0.86357445
 13.90   0.86346170
 14.00   0.86334958
 14.10   0.86323808
 14.20   0.86312720
 14.30   0.86301693
 14.40   0.86290727
 14.50   0.86279821
 14.60   0.86268973
 14.70   0.86258185
 14.80   0.86247454
 14.90   0.86236781
 15.00   0.86226164
 15.10   0.86215605
 15.20   0.86205100
 15.30   0.86194652
 15.40   0.86184258
 15.50   0.86173918
 15.60   0.86163632
 15.70   0.86153400
 15.80   0.86143221
 15.90   0.86133094
 16.00   0.86123019
 16.10   0.86112995
 16.20   0.86103023
 16.30   0.86093101
 16.40   0.86083230
 16.50   0.86073409
 16.60   0.86063638
 16.70   0.86053915
 16.80   0.86044242
 16.90   0.86034616
 17.00   0.86025039
 17.10   0.86015510
 17.20   0.86006028
 17.30   0.85996593
 17.40   0.85987204
 17.50   0.85977862
 17.60   0.85968566
 17.70   0.85959315
 17.80   0.85950110
 17.90   0.85940950
 18.00   0.85931834
 18.10   0.85922763
 18.20   0.85913736
 18.30   0.85904753
 18.40   0.85895813
 18.50   0.85886916
 18.60   0.85878062
 18.70   0.85869251
 18.80   0.85860482
 18.90   0.85851755
 19.00   0.85843070
 19.10   0.85834426
 19.20   0.85825823
 19.30   0.85817261
 19.40   0.85808740
 19.50   0.85800259
 19.60   0.85791818
 19.70   0.85783417
 19.80   0.85775056
 19.90   0.85766734
 20.00   0.85758451
 20.10   0.85750207
 20.20   0.85742001
 20.30   0.85733834
 20.40   0.85725705
 20.50   0.85717613
 20.60   0.85709559
 20.70   0.85701543
 20.80   0.85693563
 20.90   0.85685621
 21.00   0.85677715
 21.10   0.85669845
 21.20   0.85662012
 21.30   0.85654214
 21.40   0.85646453
 21.50   0.85638726
 21.60   0.85631035
 21.70   0.85623379
 21.80   0.85615758
 21.90   0.85608172
 22.00   0.85600620
 22.10   0.85593102
 22.20   0.85585618
 22.30   0.85578167
 22.40   0.85570751
 22.50   0.85563367
 22.60   0.85556017
 22.70   0.85548700
 22.80   0.85541415
 22.90   0.85534163
 23.00   0.85526943
 23.10   0.85519756
 23.20   0.85512600
 23.30   0.85505476
 23.40   0.85498383
 23.50   0.85491322
 23.60   0.85484292
 23.70   0.85477293
 23.80   0.85470324
 23.90   0.85463387
 24.00   0.85456479
 24.10   0.85449602
 24.20   0.85442755
 24.30   0.85435937
 24.40   0.85429150
 24.50   0.85422391
 24.60   0.85415662
 24.70   0.85408962
 24.80   0.85402291
 24.90   0.85395649
 25.00   0.85389035
 25.10   0.85382450
 25.20   0.85375893
 25.30   0.85369364
 25.40   0.85362863
 25.50   0.85356389
 25.60   0.85349943
 25.70   0.85343525
 25.80   0.85337133
 25.90   0.85330769
 26.00   0.85324432
 26.10   0.85318121
 26.20   0.85311837
 26.30   0.85305579
 26.40   0.85299348
 26.50   0.85293142
 26.60   0.85286962
 26.70   0.85280809
 26.80   0.85274680
 26.90   0.85268578
 27.00   0.85262500
 27.10   0.85256448
 27.20   0.85250421
 27.30   0.85244418
 27.40   0.85238440
 27.50   0.85232487
 27.60   0.85226558
 27.70   0.85220653
 27.80   0.85214773
 27.90   0.85208916
 28.00   0.85203083
 28.10   0.85197274
 28.20   0.85191488
 28.30   0.85185726
 28.40   0.85179987
 28.50   0.85174271
 28.60   0.85168578
 28.70   0.85162908
 28.80   0.85157260
 28.90   0.85151636
 29.00   0.85146033
 29.10   0.85140453
 29.20   0.85134895
 29.30   0.85129359
 29.40   0.85123844
 29.50   0.85118352
 29.60   0.85112881
 29.70   0.85107432
 29.80   0.85102004
 29.90   0.85096597
 30.00   0.85091211
 30.10   0.85085846
 30.20   0.85080502
 30.30   0.85075179
 30.40   0.85069877
 30.50   0.85064595
 30.60   0.85059333
 30.70   0.85054091
 30.80   0.85048870
 30.90   0.85043669
 31.00   0.85038487
 31.10   0.85033325
 31.20   0.85028183
 31.30   0.85023061
 31.40   0.85017958
 31.50   0.85012874
 31.60   0.85007809
 31.70   0.85002763
 31.80   0.84997737
 31.90   0.84992729
 32.00   0.84987740
 32.10   0.84982769
 32.20   0.84977817
 32.30   0.84972884
 32.40   0.84967968
 32.50   0.84963071
 32.60   0.84958192
 32.70   0.84953331
 32.80   0.84948487
 32.90   0.84943662
 33.00   0.84938854
 33.10   0.84934064
 33.20   0.84929291
 33.30   0.84924535
 33.40   0.84919797
 33.50   0.84915076
 33.60   0.84910371
 33.70   0.84905684
 33.80   0.84901014
 33.90   0.84896360
 34.00   0.84891723
 34.10   0.84887102
 34.20   0.84882498
 34.30   0.84877910
 34.40   0.84873339
 34.50   0.84868783
 34.60   0.84864244
 34.70   0.84859720
 34.80   0.84855213
 34.90   0.84850721
 35.00   0.84846245
 35.10   0.84841785
 35.20   0.84837340
 35.30   0.84832910
 35.40   0.84828496
 35.50   0.84824097
 35.60   0.84819713
 35.70   0.84815344
 35.80   0.84810990
 35.90   0.84806651
 36.00   0.84802326
 36.10   0.84798017
 36.20   0.84793722
 36.30   0.84789441
 36.40   0.84785175
 36.50   0.84780924
 36.60   0.84776686
 36.70   0.84772463
 36.80   0.84768254
 36.90   0.84764059
 37.00   0.84759878
 37.10   0.84755711
 37.20   0.84751557
 37.30   0.84747418
 37.40   0.84743291
 37.50   0.84739179
 37.60   0.84735080
 37.70   0.84730994
 37.80   0.84726922
 37.90   0.84722862
 38.00   0.84718816
 38.10   0.84714784
 38.20   0.84710764
 38.30   0.84706757
 38.40   0.84702762
 38.50   0.84698781
 38.60   0.84694812
 38.70   0.84690856
 38.80   0.84686913
 38.90   0.84682982
 39.00   0.84679064
 39.10   0.84675157
 39.20   0.84671263
 39.30   0.84667382
 39.40   0.84663512
 39.50   0.84659655
 39.60   0.84655809
 39.70   0.84651976
 39.80   0.84648154
 39.90   0.84644344
 40.00   0.84640546
 40.10   0.84636759
 40.20   0.84632984
 40.30   0.84629221
 40.40   0.84625469
 40.50   0.84621728
 40.60   0.84617999
 40.70   0.84614281
 40.80   0.84610574
 40.90   0.84606879
 41.00   0.84603194
 41.10   0.84599521
 41.20   0.84595858
 41.30   0.84592207
 41.40   0.84588566
 41.50   0.84584936
 41.60   0.84581316
 41.70   0.84577707
 41.80   0.84574109
 41.90   0.84570522
 42.00   0.84566944
 42.10   0.84563378
 42.20   0.84559821
 42.30   0.84556275
 42.40   0.84552739
 42.50   0.84549213
 42.60   0.84545698
 42.70   0.84542192
 42.80   0.84538697
 42.90   0.84535211
 43.00   0.84531735
 43.10   0.84528269
 43.20   0.84524813
 43.30   0.84521367
 43.40   0.84517930
 43.50   0.84514503
 43.60   0.84511085
 43.70   0.84507677
 43.80   0.84504279
 43.90   0.84500890
 44.00   0.84497510
 44.10   0.84494139
 44.20   0.84490778
 44.30   0.84487426
 44.40   0.84484083
 44.50   0.84480749
 44.60   0.84477424
 44.70   0.84474108
 44.80   0.84470802
 44.90   0.84467504
 45.00   0.84464214
 45.10   0.84460934
 45.20   0.84457662
 45.30   0.84454400
 45.40   0.84451145
 45.50   0.84447900
 45.60   0.84444663
 45.70   0.84441434
 45.80   0.84438214
 45.90   0.84435002
 46.00   0.84431799
 46.10   0.84428604
 46.20   0.84425417
 46.30   0.84422239
 46.40   0.84419068
 46.50   0.84415906
 46.60   0.84412752
 46.70   0.84409606
 46.80   0.84406468
 46.90   0.84403338
 47.00   0.84400216
 47.10   0.84397102
 47.20   0.84393996
 47.30   0.84390897
 47.40   0.84387806
 47.50   0.84384723
 47.60   0.84381648
 47.70   0.84378580
 47.80   0.84375519
 47.90   0.84372467
 48.00   0.84369422
 48.10   0.84366384
 48.20   0.84363354
 48.30   0.84360331
 48.40   0.84357315
 48.50   0.84354307
 48.60   0.84351306
 48.70   0.84348312
 48.80   0.84345325
 48.90   0.84342346
 49.00   0.84339374
 49.10   0.84336408
 49.20   0.84333450
 49.30   0.84330499
 49.40   0.84327555
 49.50   0.84324617
 49.60   0.84321687
 49.70   0.84318763
 49.80   0.84315847
 49.90   0.84312937
 50.00   0.84310033
 50.10   0.84307137
 50.20   0.84304247
 50.30   0.84301364
 50.40   0.84298487
 50.50   0.84295617
 50.60   0.84292753
 50.70   0.84289896
 50.80   0.84287046
 50.90   0.84284202
 51.00   0.84281364
 51.10   0.84278532
 51.20   0.84275707
 51.30   0.84272888
 51.40   0.84270076
 51.50   0.84267270
 51.60   0.84264470
 51.70   0.84261676
 51.80   0.84258888
 51.90   0.84256106
 52.00   0.84253330
 52.10   0.84250561
 52.20   0.84247797
 52.30   0.84245040
 52.40   0.84242288
 52.50   0.84239542
 52.60   0.84236802
 52.70   0.84234068
 52.80   0.84231340
 52.90   0.84228618
 53.00   0.84225901
 53.10   0.84223190
 53.20   0.84220485
 53.30   0.84217785
 53.40   0.84215091
 53.50   0.84212403
 53.60   0.84209721
 53.70   0.84207043
 53.80   0.84204372
 53.90   0.84201706
 54.00   0.84199045
 54.10   0.84196390
 54.20   0.84193740
 54.30   0.84191096
 54.40   0.84188457
 54.50   0.84185823
 54.60   0.84183195
 54.70   0.84180572
 54.80   0.84177954
 54.90   0.84175341
 55.00   0.84172734
 55.10   0.84170132
 55.20   0.84167535
 55.30   0.84164943
 55.40   0.84162356
 55.50   0.84159774
 55.60   0.84157197
 55.70   0.84154626
 55.80   0.84152059
 55.90   0.84149497
 56.00   0.84146941
 56.10   0.84144389
 56.20   0.84141842
 56.30   0.84139300
 56.40   0.84136763
 56.50   0.84134230
 56.60   0.84131703
 56.70   0.84129180
 56.80   0.84126662
 56.90   0.84124149
 57.00   0.84121640
 57.10   0.84119136
 57.20   0.84116637
 57.30   0.84114142
 57.40   0.84111652
 57.50   0.84109167
 57.60   0.84106686
 57.70   0.84104210
 57.80   0.84101738
 57.90   0.84099271
 58.00   0.84096808
 58.10   0.84094350
 58.20   0.84091896
 58.30   0.84089447
 58.40   0.84087002
 58.50   0.84084561
 58.60   0.84082125
 58.70   0.84079693
 58.80   0.84077266
 58.90   0.84074842
 59.00   0.84072423
 59.10   0.84070008
 59.20   0.84067598
 59.30   0.84065192
 59.40   0.84062790
 59.50   0.84060392
 59.60   0.84057998
 59.70   0.84055608
 59.80   0.84053223
 59.90   0.84050841
 60.00   0.84048464
 60.10   0.84046091
 60.20   0.84043721
 60.30   0.84041356
 60.40   0.84038995
 60.50   0.84036638
 60.60   0.84034284
 60.70   0.84031935
 60.80   0.84029589
 60.90   0.84027248
 61.00   0.84024910
 61.10   0.84022577
 61.20   0.84020247
 61.30   0.84017921
 61.40   0.84015598
 61.50   0.84013280
 61.60   0.84010965
 61.70   0.84008654
 61.80   0.84006347
 61.90   0.84004044
 62.00   0.84001744
 62.10   0.83999448
 62.20   0.83997156
 62.30   0.83994867
 62.40   0.83992582
 62.50   0.83990301
 62.60   0.83988023
 62.70   0.83985749
 62.80   0.83983479
 62.90   0.83981212
 63.00   0.83978948
 63.10   0.83976688
 63.20   0.83974432
 63.30   0.83972179
 63.40   0.83969930
 63.50   0.83967684
 63.60   0.83965441
 63.70   0.83963202
 63.80   0.83960967
 63.90   0.83958734
 64.00   0.83956506
 64.10   0.83954280
 64.20   0.83952058
 64.30   0.83949840
 64.40   0.83947624
 64.50   0.83945412
 64.60   0.83943203
 64.70   0.83940998
 64.80   0.83938796
 64.90   0.83936597
 65.00   0.83934401
 65.10   0.83932209
 65.20   0.83930020
 65.30   0.83927834
 65.40   0.83925651
 65.50   0.83923471
 65.60   0.83921295
 65.70   0.83919122
 65.80   0.83916952
 65.90   0.83914785
 66.00   0.83912621
 66.10   0.83910460
 66.20   0.83908302
 66.30   0.83906147
 66.40   0.83903996
 66.50   0.83901847
 66.60   0.83899702
 66.70   0.83897559
 66.80   0.83895420
 66.90   0.83893283
 67.00   0.83891150
 67.10   0.83889019
 67.20   0.83886892
 67.30   0.83884767
 67.40   0.83882646
 67.50   0.83880527
 67.60   0.83878411
 67.70   0.83876298
 67.80   0.83874188
 67.90   0.83872081
 68.00   0.83869976
 68.10   0.83867875
 68.20   0.83865776
 68.30   0.83863681
 68.40   0.83861588
 68.50   0.83859497
 68.60   0.83857410
 68.70   0.83855325
 68.80   0.83853244
 68.90   0.83851164
 69.00   0.83849088
 69.10   0.83847015
 69.20   0.83844944
 69.30   0.83842875
 69.40   0.83840810
 69.50   0.83838747
 69.60   0.83836687
 69.70   0.83834630
 69.80   0.83832575
 69.90   0.83830523
 70.00   0.83828473
 70.10   0.83826427
 70.20   0.83824382
 70.30   0.83822341
 70.40   0.83820302
 70.50   0.83818265
 70.60   0.83816232
 70.70   0.83814200
 70.80   0.83812172
 70.90   0.83810145
 71.00   0.83808122
 71.10   0.83806101
 71.20   0.83804082
 71.30   0.83802066
 71.40   0.83800053
 71.50   0.83798042
 71.60   0.83796033
 71.70   0.83794027
 71.80   0.83792023
 71.90   0.83790022
 72.00   0.83788023
 72.10   0.83786027
 72.20   0.83784033
 72.30   0.83782041
 72.40   0.83780052
 72.50   0.83778066
 72.60   0.83776081
 72.70   0.83774099
 72.80   0.83772120
 72.90   0.83770143
 73.00   0.83768168
 73.10   0.83766195
 73.20   0.83764225
 73.30   0.83762257
 73.40   0.83760292
 73.50   0.83758329
 73.60   0.83756368
 73.70   0.83754409
 73.80   0.83752453
 73.90   0.83750499
 74.00   0.83748547
 74.10   0.83746598
 74.20   0.83744650
 74.30   0.83742705
 74.40   0.83740763
 74.50   0.83738822
 74.60   0.83736884
 74.70   0.83734948
 74.80   0.83733014
 74.90   0.83731082
 75.00   0.83729153
 75.10   0.83727225
 75.20   0.83725300
 75.30   0.83723377
 75.40   0.83721456
 75.50   0.83719537
 75.60   0.83717621
 75.70   0.83715706
 75.80   0.83713794
 75.90   0.83711884
 76.00   0.83709976
 76.10   0.83708070
 76.20   0.83706166
 76.30   0.83704264
 76.40   0.83702365
 76.50   0.83700467
 76.60   0.83698572
 76.70   0.83696678
 76.80   0.83694787
 76.90   0.83692897
 77.00   0.83691010
 77.10   0.83689125
 77.20   0.83687241
 77.30   0.83685360
 77.40   0.83683481
 77.50   0.83681604
 77.60   0.83679729
 77.70   0.83677855
 77.80   0.83675984
 77.90   0.83674115
 78.00   0.83672248
 78.10   0.83670382
 78.20   0.83668519
 78.30   0.83666658
 78.40   0.83664798
 78.50   0.83662941
 78.60   0.83661085
 78.70   0.83659232
 78.80   0.83657380
 78.90   0.83655530
 79.00   0.83653682
 79.10   0.83651836
 79.20   0.83649992
 79.30   0.83648150
 79.40   0.83646310
 79.50   0.83644471
 79.60   0.83642635
 79.70   0.83640800
 79.80   0.83638967
 79.90   0.83637136
 80.00   0.83635307
 80.10   0.83633480
 80.20   0.83631655
 80.30   0.83629831
 80.40   0.83628009
 80.50   0.83626189
 80.60   0.83624371
 80.70   0.83622555
 80.80   0.83620741
 80.90   0.83618928
 81.00   0.83617117
 81.10   0.83615308
 81.20   0.83613501
 81.30   0.83611695
 81.40   0.83609891
 81.50   0.83608090
 81.60   0.83606289
 81.70   0.83604491
 81.80   0.83602694
 81.90   0.83600899
 82.00   0.83599106
 82.10   0.83597315
 82.20   0.83595525
 82.30   0.83593737
 82.40   0.83591950
 82.50   0.83590166
 82.60   0.83588383
 82.70   0.83586602
 82.80   0.83584822
 82.90   0.83583045
 83.00   0.83581269
 83.10   0.83579494
 83.20   0.83577722
 83.30   0.83575951
 83.40   0.83574181
 83.50   0.83572414
 83.60   0.83570648
 83.70   0.83568883
 83.80   0.83567121
 83.90   0.83565359
 84.00   0.83563600
 84.10   0.83561842
 84.20   0.83560086
 84.30   0.83558332
 84.40   0.83556579
 84.50   0.83554828
 84.60   0.83553078
 84.70   0.83551330
 84.80   0.83549584
 84.90   0.83547839
 85.00   0.83546096
 85.10   0.83544354
 85.20   0.83542614
 85.30   0.83540876
 85.40   0.83539139
 85.50   0.83537403
 85.60   0.83535670
 85.70   0.83533938
 85.80   0.83532207
 85.90   0.83530478
 86.00   0.83528751
 86.10   0.83527025
 86.20   0.83525300
 86.30   0.83523578
 86.40   0.83521856
 86.50   0.83520137
 86.60   0.83518419
 86.70   0.83516702
 86.80   0.83514987
 86.90   0.83513273
 87.00   0.83511561
 87.10   0.83509850
 87.20   0.83508141
 87.30   0.83506434
 87.40   0.83504728
 87.50   0.83503023
 87.60   0.83501320
 87.70   0.83499619
 87.80   0.83497919
 87.90   0.83496220
 88.00   0.83494523
 88.10   0.83492827
 88.20   0.83491133
 88.30   0.83489440
 88.40   0.83487749
 88.50   0.83486059
 88.60   0.83484371
 88.70   0.83482684
 88.80   0.83480999
 88.90   0.83479315
 89.00   0.83477632
 89.10   0.83475951
 89.20   0.83474271
 89.30   0.83472593
 89.40   0.83470916
 89.50   0.83469241
 89.60   0.83467567
 89.70   0.83465895
 89.80   0.83464224
 89.90   0.83462554
 90.00   0.83460886
 90.10   0.83459219
 90.20   0.83457553
 90.30   0.83455889
 90.40   0.83454226
 90.50   0.83452565
 90.60   0.83450905
 90.70   0.83449247
 90.80   0.83447590
 90.90   0.83445934
 91.00   0.83444279
 91.10   0.83442626
 91.20   0.83440975
 91.30   0.83439325
 91.40   0.83437676
 91.50   0.83436028
 91.60   0.83434382
 91.70   0.83432737
 91.80   0.83431094
 91.90   0.83429452
 92.00   0.83427811
 92.10   0.83426171
 92.20   0.83424533
 92.30   0.83422896
 92.40   0.83421261
 92.50   0.83419627
 92.60   0.83417994
 92.70   0.83416363
 92.80   0.83414733
 92.90   0.83413104
 93.00   0.83411476
 93.10   0.83409850
 93.20   0.83408225
 93.30   0.83406602
 93.40   0.83404980
 93.50   0.83403359
 93.60   0.83401739
 93.70   0.83400121
 93.80   0.83398504
 93.90   0.83396888
 94.00   0.83395273
 94.10   0.83393660
 94.20   0.83392048
 94.30   0.83390438
 94.40   0.83388828
 94.50   0.83387220
 94.60   0.83385613
 94.70   0.83384008
 94.80   0.83382404
 94.90   0.83380801
 95.00   0.83379199
 95.10   0.83377599
 95.20   0.83375999
 95.30   0.83374401
 95.40   0.83372805
 95.50   0.83371209
 95.60   0.83369615
 95.70   0.83368022
 95.80   0.83366430
 95.90   0.83364840
 96.00   0.83363251
 96.10   0.83361663
 96.20   0.83360076
 96.30   0.83358490
 96.40   0.83356906
 96.50   0.83355323
 96.60   0.83353741
 96.70   0.83352160
 96.80   0.83350581
 96.90   0.83349003
 97.00   0.83347426
 97.10   0.83345850
 97.20   0.83344276
 97.30   0.83342702
 97.40   0.83341130
 97.50   0.83339559
 97.60   0.83337989
 97.70   0.83336421
 97.80   0.83334853
 97.90   0.83333287
 98.00   0.83331722
 98.10   0.83330159
 98.20   0.83328596
 98.30   0.83327035
 98.40   0.83325474
 98.50   0.83323915
 98.60   0.83322357
 98.70   0.83320801
 98.80   0.83319245
 98.90   0.83317691
 99.00   0.83316138
 99.10   0.83314586
 99.20   0.83313035
 99.30   0.83311485
 99.40   0.83309937
 99.50   0.83308389
 99.60   0.83306843
 99.70   0.83305298
 99.80   0.83303754
