  Time Stress
  0.00   1.54311000
  0.10   1.54096475
  0.20   1.53891331
  0.30   1.53695092
  0.40   1.53507307
  0.50   1.53327548
  0.60   1.53155408
  0.70   1.52990503
  0.80   1.52832468
  0.90   1.52680957
  1.00   1.52535640
  1.10   1.52396207
  1.20   1.52262362
  1.30   1.52133825
  1.40   1.52010331
  1.50   1.51891627
  1.60   1.51777475
  1.70   1.51667648
  1.80   1.51561930
  1.90   1.51460119
  2.00   1.51362020
  2.10   1.51267450
  2.20   1.51176235
  2.30   1.51088210
  2.40   1.51003219
  2.50   1.50921113
  2.60   1.50841752
  2.70   1.50765000
  2.80   1.50690733
  2.90   1.50618829
  3.00   1.50549175
  3.10   1.50481662
  3.20   1.50416188
  3.30   1.50352655
  3.40   1.50290971
  3.50   1.50231049
  3.60   1.50172804
  3.70   1.50116158
  3.80   1.50061037
  3.90   1.50007368
  4.00   1.49955085
  4.10   1.49904124
  4.20   1.49854424
  4.30   1.49805928
  4.40   1.49758580
  4.50   1.49712328
  4.60   1.49667124
  4.70   1.49622921
  4.80   1.49579674
  4.90   1.49537341
  5.00   1.49495882
  5.10   1.49455259
  5.20   1.49415436
  5.30   1.49376379
  5.40   1.49338056
  5.50   1.49300434
  5.60   1.49263486
  5.70   1.49227183
  5.80   1.49191498
  5.90   1.49156408
  6.00   1.49121886
  6.10   1.49087912
  6.20   1.49054463
  6.30   1.49021520
  6.40   1.48989061
  6.50   1.48957070
  6.60   1.48925528
  6.70   1.48894419
  6.80   1.48863726
  6.90   1.48833435
  7.00   1.48803532
  7.10   1.48774002
  7.20   1.48744832
  7.30   1.48716011
  7.40   1.48687526
  7.50   1.48659366
  7.60   1.48631521
  7.70   1.48603980
  7.80   1.48576734
  7.90   1.48549774
  8.00   1.48523090
  8.10   1.48496674
  8.20   1.48470519
  8.30   1.48444617
  8.40   1.48418960
  8.50   1.48393542
  8.60   1.48368356
  8.70   1.48343396
  8.80   1.48318655
  8.90   1.48294129
  9.00   1.48269812
  9.10   1.48245697
  9.20   1.48221781
  9.30   1.48198059
  9.40   1.48174526
  9.50   1.48151178
  9.60   1.48128010
  9.70   1.48105019
  9.80   1.48082201
  9.90   1.48059552
 10.00   1.48037069
 10.10   1.48014748
 10.20   1.47992586
 10.30   1.47970580
 10.40   1.47948728
 10.50   1.47927025
 10.60   1.47905470
 10.70   1.47884060
 10.80   1.47862793
 10.90   1.47841665
 11.00   1.47820676
 11.10   1.47799821
 11.20   1.47779100
 11.30   1.47758510
 11.40   1.47738050
 11.50   1.47717717
 11.60   1.47697509
 11.70   1.47677425
 11.80   1.47657463
 11.90   1.47637622
 12.00   1.47617899
 12.10   1.47598293
 12.20   1.47578802
 12.30   1.47559426
 12.40   1.47540163
 12.50   1.47521011
 12.60   1.47501969
 12.70   1.47483036
 12.80   1.47464211
 12.90   1.47445491
 13.00   1.47426877
 13.10   1.47408367
 13.20   1.47389960
 13.30   1.47371654
 13.40   1.47353449
 13.50   1.47335344
 13.60   1.47317337
 13.70   1.47299429
 13.80   1.47281617
 13.90   1.47263900
 14.00   1.47246279
 14.10   1.47228752
 14.20   1.47211318
 14.30   1.47193976
 14.40   1.47176725
 14.50   1.47159565
 14.60   1.47142495
 14.70   1.47125515
 14.80   1.47108622
 14.90   1.47091817
 15.00   1.47075099
 15.10   1.47058467
 15.20   1.47041920
 15.30   1.47025458
 15.40   1.47009079
 15.50   1.46992785
 15.60   1.46976572
 15.70   1.46960442
 15.80   1.46944393
 15.90   1.46928425
 16.00   1.46912537
 16.10   1.46896728
 16.20   1.46880998
 16.30   1.46865347
 16.40   1.46849773
 16.50   1.46834276
 16.60   1.46818856
 16.70   1.46803512
 16.80   1.46788243
 16.90   1.46773049
 17.00   1.46757929
 17.10   1.46742883
 17.20   1.46727910
 17.30   1.46713010
 17.40   1.46698183
 17.50   1.46683426
 17.60   1.46668741
 17.70   1.46654127
 17.80   1.46639583
 17.90   1.46625108
 18.00   1.46610703
 18.10   1.46596367
 18.20   1.46582098
 18.30   1.46567898
 18.40   1.46553765
 18.50   1.46539698
 18.60   1.46525698
 18.70   1.46511764
 18.80   1.46497895
 18.90   1.46484092
 19.00   1.46470353
 19.10   1.46456678
 19.20   1.46443067
 19.30   1.46429519
 19.40   1.46416034
 19.50   1.46402612
 19.60   1.46389251
 19.70   1.46375952
 19.80   1.46362715
 19.90   1.46349538
 20.00   1.46336422
 20.10   1.46323365
 20.20   1.46310368
 20.30   1.46297431
 20.40   1.46284552
 20.50   1.46271732
 20.60   1.46258969
 20.70   1.46246265
 20.80   1.46233617
 20.90   1.46221027
 21.00   1.46208493
 21.10   1.46196015
 21.20   1.46183593
 21.30   1.46171226
 21.40   1.46158915
 21.50   1.46146658
 21.60   1.46134456
 21.70   1.46122308
 21.80   1.46110213
 21.90   1.46098171
 22.00   1.46086183
 22.10   1.46074247
 22.20   1.46062364
 22.30   1.46050532
 22.40   1.46038752
 22.50   1.46027023
 22.60   1.46015345
 22.70   1.46003718
 22.80   1.45992141
 22.90   1.45980614
 23.00   1.45969137
 23.10   1.45957709
 23.20   1.45946330
 23.30   1.45935000
 23.40   1.45923718
 23.50   1.45912484
 23.60   1.45901298
 23.70   1.45890159
 23.80   1.45879068
 23.90   1.45868023
 24.00   1.45857025
 24.10   1.45846074
 24.20   1.45835168
 24.30   1.45824308
 24.40   1.45813493
 24.50   1.45802723
 24.60   1.45791998
 24.70   1.45781318
 24.80   1.45770682
 24.90   1.45760089
 25.00   1.45749541
 25.10   1.45739036
 25.20   1.45728574
 25.30   1.45718154
 25.40   1.45707778
 25.50   1.45697444
 25.60   1.45687151
 25.70   1.45676901
 25.80   1.45666692
 25.90   1.45656524
 26.00   1.45646397
 26.10   1.45636311
 26.20   1.45626266
 26.30   1.45616260
 26.40   1.45606295
 26.50   1.45596369
 26.60   1.45586483
 26.70   1.45576636
 26.80   1.45566828
 26.90   1.45557058
 27.00   1.45547327
 27.10   1.45537635
 27.20   1.45527980
 27.30   1.45518363
 27.40   1.45508784
 27.50   1.45499242
 27.60   1.45489737
 27.70   1.45480268
 27.80   1.45470837
 27.90   1.45461441
 28.00   1.45452082
 28.10   1.45442759
 28.20   1.45433471
 28.30   1.45424219
 28.40   1.45415002
 28.50   1.45405820
 28.60   1.45396673
 28.70   1.45387561
 28.80   1.45378482
 28.90   1.45369438
 29.00   1.45360428
 29.10   1.45351452
 29.20   1.45342509
 29.30   1.45333600
 29.40   1.45324723
 29.50   1.45315880
 29.60   1.45307069
 29.70   1.45298291
 29.80   1.45289544
 29.90   1.45280831
 30.00   1.45272148
 30.10   1.45263498
 30.20   1.45254879
 30.30   1.45246292
 30.40   1.45237735
 30.50   1.45229210
 30.60   1.45220715
 30.70   1.45212250
 30.80   1.45203817
 30.90   1.45195413
 31.00   1.45187039
 31.10   1.45178695
 31.20   1.45170381
 31.30   1.45162096
 31.40   1.45153840
 31.50   1.45145613
 31.60   1.45137415
 31.70   1.45129246
 31.80   1.45121106
 31.90   1.45112994
 32.00   1.45104910
 32.10   1.45096854
 32.20   1.45088826
 32.30   1.45080825
 32.40   1.45072853
 32.50   1.45064907
 32.60   1.45056989
 32.70   1.45049097
 32.80   1.45041233
 32.90   1.45033395
 33.00   1.45025583
 33.10   1.45017798
 33.20   1.45010040
 33.30   1.45002307
 33.40   1.44994600
 33.50   1.44986919
 33.60   1.44979263
 33.70   1.44971633
 33.80   1.44964028
 33.90   1.44956448
 34.00   1.44948894
 34.10   1.44941364
 34.20   1.44933858
 34.30   1.44926377
 34.40   1.44918921
 34.50   1.44911489
 34.60   1.44904080
 34.70   1.44896696
 34.80   1.44889335
 34.90   1.44881999
 35.00   1.44874685
 35.10   1.44867395
 35.20   1.44860128
 35.30   1.44852885
 35.40   1.44845664
 35.50   1.44838466
 35.60   1.44831290
 35.70   1.44824138
 35.80   1.44817007
 35.90   1.44809899
 36.00   1.44802813
 36.10   1.44795749
 36.20   1.44788707
 36.30   1.44781686
 36.40   1.44774687
 36.50   1.44767710
 36.60   1.44760754
 36.70   1.44753819
 36.80   1.44746906
 36.90   1.44740013
 37.00   1.44733141
 37.10   1.44726290
 37.20   1.44719459
 37.30   1.44712649
 37.40   1.44705860
 37.50   1.44699090
 37.60   1.44692341
 37.70   1.44685612
 37.80   1.44678902
 37.90   1.44672213
 38.00   1.44665543
 38.10   1.44658892
 38.20   1.44652261
 38.30   1.44645650
 38.40   1.44639057
 38.50   1.44632484
 38.60   1.44625929
 38.70   1.44619394
 38.80   1.44612877
 38.90   1.44606379
 39.00   1.44599899
 39.10   1.44593438
 39.20   1.44586995
 39.30   1.44580571
 39.40   1.44574164
 39.50   1.44567776
 39.60   1.44561405
 39.70   1.44555052
 39.80   1.44548717
 39.90   1.44542400
 40.00   1.44536100
 40.10   1.44529817
 40.20   1.44523552
 40.30   1.44517304
 40.40   1.44511073
 40.50   1.44504859
 40.60   1.44498662
 40.70   1.44492481
 40.80   1.44486318
 40.90   1.44480171
 41.00   1.44474040
 41.10   1.44467926
 41.20   1.44461829
 41.30   1.44455747
 41.40   1.44449682
 41.50   1.44443633
 41.60   1.44437599
 41.70   1.44431582
 41.80   1.44425580
 41.90   1.44419595
 42.00   1.44413624
 42.10   1.44407669
 42.20   1.44401730
 42.30   1.44395806
 42.40   1.44389897
 42.50   1.44384004
 42.60   1.44378125
 42.70   1.44372262
 42.80   1.44366413
 42.90   1.44360579
 43.00   1.44354760
 43.10   1.44348956
 43.20   1.44343166
 43.30   1.44337391
 43.40   1.44331630
 43.50   1.44325883
 43.60   1.44320151
 43.70   1.44314433
 43.80   1.44308729
 43.90   1.44303039
 44.00   1.44297363
 44.10   1.44291701
 44.20   1.44286053
 44.30   1.44280419
 44.40   1.44274798
 44.50   1.44269190
 44.60   1.44263596
 44.70   1.44258016
 44.80   1.44252449
 44.90   1.44246895
 45.00   1.44241355
 45.10   1.44235827
 45.20   1.44230313
 45.30   1.44224811
 45.40   1.44219323
 45.50   1.44213847
 45.60   1.44208384
 45.70   1.44202934
 45.80   1.44197497
 45.90   1.44192072
 46.00   1.44186659
 46.10   1.44181259
 46.20   1.44175872
 46.30   1.44170496
 46.40   1.44165133
 46.50   1.44159782
 46.60   1.44154443
 46.70   1.44149117
 46.80   1.44143802
 46.90   1.44138499
 47.00   1.44133208
 47.10   1.44127929
 47.20   1.44122661
 47.30   1.44117405
 47.40   1.44112161
 47.50   1.44106928
 47.60   1.44101707
 47.70   1.44096497
 47.80   1.44091299
 47.90   1.44086111
 48.00   1.44080935
 48.10   1.44075771
 48.20   1.44070617
 48.30   1.44065474
 48.40   1.44060343
 48.50   1.44055222
 48.60   1.44050112
 48.70   1.44045013
 48.80   1.44039925
 48.90   1.44034848
 49.00   1.44029781
 49.10   1.44024724
 49.20   1.44019679
 49.30   1.44014644
 49.40   1.44009619
 49.50   1.44004605
 49.60   1.43999601
 49.70   1.43994607
 49.80   1.43989623
 49.90   1.43984650
 50.00   1.43979687
 50.10   1.43974734
 50.20   1.43969791
 50.30   1.43964858
 50.40   1.43959934
 50.50   1.43955021
 50.60   1.43950118
 50.70   1.43945224
 50.80   1.43940340
 50.90   1.43935465
 51.00   1.43930601
 51.10   1.43925746
 51.20   1.43920900
 51.30   1.43916064
 51.40   1.43911237
 51.50   1.43906420
 51.60   1.43901612
 51.70   1.43896813
 51.80   1.43892023
 51.90   1.43887243
 52.00   1.43882472
 52.10   1.43877710
 52.20   1.43872957
 52.30   1.43868213
 52.40   1.43863478
 52.50   1.43858752
 52.60   1.43854035
 52.70   1.43849326
 52.80   1.43844627
 52.90   1.43839936
 53.00   1.43835254
 53.10   1.43830580
 53.20   1.43825916
 53.30   1.43821259
 53.40   1.43816612
 53.50   1.43811972
 53.60   1.43807342
 53.70   1.43802719
 53.80   1.43798105
 53.90   1.43793500
 54.00   1.43788903
 54.10   1.43784313
 54.20   1.43779733
 54.30   1.43775160
 54.40   1.43770595
 54.50   1.43766039
 54.60   1.43761491
 54.70   1.43756950
 54.80   1.43752418
 54.90   1.43747894
 55.00   1.43743377
 55.10   1.43738868
 55.20   1.43734368
 55.30   1.43729875
 55.40   1.43725389
 55.50   1.43720912
 55.60   1.43716442
 55.70   1.43711980
 55.80   1.43707525
 55.90   1.43703078
 56.00   1.43698639
 56.10   1.43694207
 56.20   1.43689782
 56.30   1.43685365
 56.40   1.43680956
 56.50   1.43676554
 56.60   1.43672159
 56.70   1.43667771
 56.80   1.43663391
 56.90   1.43659018
 57.00   1.43654652
 57.10   1.43650293
 57.20   1.43645942
 57.30   1.43641597
 57.40   1.43637260
 57.50   1.43632929
 57.60   1.43628606
 57.70   1.43624290
 57.80   1.43619980
 57.90   1.43615678
 58.00   1.43611382
 58.10   1.43607093
 58.20   1.43602812
 58.30   1.43598536
 58.40   1.43594268
 58.50   1.43590006
 58.60   1.43585752
 58.70   1.43581503
 58.80   1.43577262
 58.90   1.43573027
 59.00   1.43568798
 59.10   1.43564577
 59.20   1.43560361
 59.30   1.43556152
 59.40   1.43551950
 59.50   1.43547754
 59.60   1.43543565
 59.70   1.43539382
 59.80   1.43535205
 59.90   1.43531035
 60.00   1.43526871
 60.10   1.43522713
 60.20   1.43518561
 60.30   1.43514416
 60.40   1.43510277
 60.50   1.43506144
 60.60   1.43502017
 60.70   1.43497897
 60.80   1.43493782
 60.90   1.43489673
 61.00   1.43485571
 61.10   1.43481475
 61.20   1.43477384
 61.30   1.43473300
 61.40   1.43469221
 61.50   1.43465149
 61.60   1.43461082
 61.70   1.43457021
 61.80   1.43452966
 61.90   1.43448917
 62.00   1.43444874
 62.10   1.43440836
 62.20   1.43436804
 62.30   1.43432778
 62.40   1.43428758
 62.50   1.43424743
 62.60   1.43420734
 62.70   1.43416730
 62.80   1.43412733
 62.90   1.43408740
 63.00   1.43404754
 63.10   1.43400772
 63.20   1.43396797
 63.30   1.43392827
 63.40   1.43388862
 63.50   1.43384903
 63.60   1.43380949
 63.70   1.43377001
 63.80   1.43373058
 63.90   1.43369120
 64.00   1.43365188
 64.10   1.43361261
 64.20   1.43357340
 64.30   1.43353424
 64.40   1.43349512
 64.50   1.43345607
 64.60   1.43341706
 64.70   1.43337811
 64.80   1.43333921
 64.90   1.43330036
 65.00   1.43326156
 65.10   1.43322281
 65.20   1.43318411
 65.30   1.43314547
 65.40   1.43310687
 65.50   1.43306833
 65.60   1.43302984
 65.70   1.43299139
 65.80   1.43295300
 65.90   1.43291466
 66.00   1.43287636
 66.10   1.43283812
 66.20   1.43279992
 66.30   1.43276177
 66.40   1.43272367
 66.50   1.43268562
 66.60   1.43264762
 66.70   1.43260967
 66.80   1.43257177
 66.90   1.43253391
 67.00   1.43249610
 67.10   1.43245834
 67.20   1.43242062
 67.30   1.43238296
 67.40   1.43234534
 67.50   1.43230776
 67.60   1.43227024
 67.70   1.43223276
 67.80   1.43219532
 67.90   1.43215794
 68.00   1.43212060
 68.10   1.43208330
 68.20   1.43204605
 68.30   1.43200885
 68.40   1.43197169
 68.50   1.43193457
 68.60   1.43189751
 68.70   1.43186048
 68.80   1.43182350
 68.90   1.43178657
 69.00   1.43174968
 69.10   1.43171284
 69.20   1.43167603
 69.30   1.43163928
 69.40   1.43160256
 69.50   1.43156589
 69.60   1.43152927
 69.70   1.43149269
 69.80   1.43145615
 69.90   1.43141965
 70.00   1.43138320
 70.10   1.43134679
 70.20   1.43131042
 70.30   1.43127409
 70.40   1.43123781
 70.50   1.43120157
 70.60   1.43116537
 70.70   1.43112921
 70.80   1.43109310
 70.90   1.43105703
 71.00   1.43102099
 71.10   1.43098500
 71.20   1.43094905
 71.30   1.43091315
 71.40   1.43087728
 71.50   1.43084145
 71.60   1.43080567
 71.70   1.43076992
 71.80   1.43073422
 71.90   1.43069856
 72.00   1.43066293
 72.10   1.43062735
 72.20   1.43059181
 72.30   1.43055630
 72.40   1.43052084
 72.50   1.43048542
 72.60   1.43045003
 72.70   1.43041468
 72.80   1.43037938
 72.90   1.43034411
 73.00   1.43030888
 73.10   1.43027369
 73.20   1.43023854
 73.30   1.43020343
 73.40   1.43016836
 73.50   1.43013332
 73.60   1.43009833
 73.70   1.43006337
 73.80   1.43002845
 73.90   1.42999356
 74.00   1.42995872
 74.10   1.42992391
 74.20   1.42988914
 74.30   1.42985441
 74.40   1.42981972
 74.50   1.42978506
 74.60   1.42975044
 74.70   1.42971585
 74.80   1.42968131
 74.90   1.42964680
 75.00   1.42961232
 75.10   1.42957789
 75.20   1.42954349
 75.30   1.42950912
 75.40   1.42947480
 75.50   1.42944051
 75.60   1.42940625
 75.70   1.42937203
 75.80   1.42933785
 75.90   1.42930370
 76.00   1.42926959
 76.10   1.42923551
 76.20   1.42920147
 76.30   1.42916746
 76.40   1.42913349
 76.50   1.42909956
 76.60   1.42906566
 76.70   1.42903179
 76.80   1.42899796
 76.90   1.42896417
 77.00   1.42893041
 77.10   1.42889668
 77.20   1.42886299
 77.30   1.42882933
 77.40   1.42879571
 77.50   1.42876212
 77.60   1.42872856
 77.70   1.42869504
 77.80   1.42866155
 77.90   1.42862810
 78.00   1.42859468
 78.10   1.42856130
 78.20   1.42852794
 78.30   1.42849462
 78.40   1.42846134
 78.50   1.42842809
 78.60   1.42839487
 78.70   1.42836168
 78.80   1.42832853
 78.90   1.42829541
 79.00   1.42826232
 79.10   1.42822927
 79.20   1.42819625
 79.30   1.42816326
 79.40   1.42813030
 79.50   1.42809738
 79.60   1.42806448
 79.70   1.42803162
 79.80   1.42799880
 79.90   1.42796600
 80.00   1.42793324
 80.10   1.42790051
 80.20   1.42786781
 80.30   1.42783514
 80.40   1.42780250
 80.50   1.42776990
 80.60   1.42773733
 80.70   1.42770479
 80.80   1.42767228
 80.90   1.42763980
 81.00   1.42760735
 81.10   1.42757493
 81.20   1.42754255
 81.30   1.42751019
 81.40   1.42747787
 81.50   1.42744558
 81.60   1.42741332
 81.70   1.42738108
 81.80   1.42734888
 81.90   1.42731671
 82.00   1.42728458
 82.10   1.42725247
 82.20   1.42722039
 82.30   1.42718834
 82.40   1.42715632
 82.50   1.42712433
 82.60   1.42709238
 82.70   1.42706045
 82.80   1.42702855
 82.90   1.42699668
 83.00   1.42696484
 83.10   1.42693304
 83.20   1.42690126
 83.30   1.42686951
 83.40   1.42683779
 83.50   1.42680610
 83.60   1.42677444
 83.70   1.42674280
 83.80   1.42671120
 83.90   1.42667963
 84.00   1.42664808
 84.10   1.42661657
 84.20   1.42658508
 84.30   1.42655363
 84.40   1.42652220
 84.50   1.42649080
 84.60   1.42645943
 84.70   1.42642809
 84.80   1.42639677
 84.90   1.42636549
 85.00   1.42633423
 85.10   1.42630300
 85.20   1.42627180
 85.30   1.42624063
 85.40   1.42620949
 85.50   1.42617837
 85.60   1.42614729
 85.70   1.42611623
 85.80   1.42608520
 85.90   1.42605419
 86.00   1.42602322
 86.10   1.42599227
 86.20   1.42596135
 86.30   1.42593046
 86.40   1.42589960
 86.50   1.42586876
 86.60   1.42583795
 86.70   1.42580717
 86.80   1.42577642
 86.90   1.42574569
 87.00   1.42571499
 87.10   1.42568432
 87.20   1.42565367
 87.30   1.42562306
 87.40   1.42559247
 87.50   1.42556190
 87.60   1.42553137
 87.70   1.42550086
 87.80   1.42547037
 87.90   1.42543992
 88.00   1.42540949
 88.10   1.42537909
 88.20   1.42534871
 88.30   1.42531836
 88.40   1.42528804
 88.50   1.42525774
 88.60   1.42522747
 88.70   1.42519723
 88.80   1.42516701
 88.90   1.42513682
 89.00   1.42510666
 89.10   1.42507652
 89.20   1.42504641
 89.30   1.42501632
 89.40   1.42498627
 89.50   1.42495623
 89.60   1.42492622
 89.70   1.42489624
 89.80   1.42486629
 89.90   1.42483636
 90.00   1.42480645
 90.10   1.42477657
 90.20   1.42474672
 90.30   1.42471689
 90.40   1.42468709
 90.50   1.42465732
 90.60   1.42462757
 90.70   1.42459784
 90.80   1.42456814
 90.90   1.42453847
 91.00   1.42450882
 91.10   1.42447919
 91.20   1.42444960
 91.30   1.42442002
 91.40   1.42439047
 91.50   1.42436095
 91.60   1.42433145
 91.70   1.42430198
 91.80   1.42427253
 91.90   1.42424311
 92.00   1.42421371
 92.10   1.42418434
 92.20   1.42415499
 92.30   1.42412566
 92.40   1.42409636
 92.50   1.42406709
 92.60   1.42403784
 92.70   1.42400861
 92.80   1.42397941
 92.90   1.42395023
 93.00   1.42392108
 93.10   1.42389195
 93.20   1.42386285
 93.30   1.42383377
 93.40   1.42380472
 93.50   1.42377569
 93.60   1.42374668
 93.70   1.42371770
 93.80   1.42368874
 93.90   1.42365981
 94.00   1.42363090
 94.10   1.42360201
 94.20   1.42357315
 94.30   1.42354431
 94.40   1.42351550
 94.50   1.42348671
 94.60   1.42345794
 94.70   1.42342920
 94.80   1.42340048
 94.90   1.42337178
 95.00   1.42334311
 95.10   1.42331446
 95.20   1.42328584
 95.30   1.42325724
 95.40   1.42322866
 95.50   1.42320010
 95.60   1.42317157
 95.70   1.42314307
 95.80   1.42311458
 95.90   1.42308612
 96.00   1.42305768
 96.10   1.42302927
 96.20   1.42300088
 96.30   1.42297251
 96.40   1.42294417
 96.50   1.42291585
 96.60   1.42288755
 96.70   1.42285927
 96.80   1.42283102
 96.90   1.42280279
 97.00   1.42277458
 97.10   1.42274640
 97.20   1.42271824
 97.30   1.42269010
 97.40   1.42266199
 97.50   1.42263389
 97.60   1.42260582
 97.70   1.42257778
 97.80   1.42254975
 97.90   1.42252175
 98.00   1.42249377
 98.10   1.42246581
 98.20   1.42243788
 98.30   1.42240997
 98.40   1.42238208
 98.50   1.42235421
 98.60   1.42232637
 98.70   1.42229855
 98.80   1.42227075
 98.90   1.42224297
 99.00   1.42221522
 99.10   1.42218748
 99.20   1.42215977
 99.30   1.42213208
 99.40   1.42210442
 99.50   1.42207677
 99.60   1.42204915
 99.70   1.42202155
 99.80   1.42199397
