Time,Stress
0,4.10703
0.1,4.09552
0.2,4.08415
0.3,4.07556
0.4,4.06787
0.5,4.06107
0.6,4.05471
0.7,4.04901
0.8,4.04391
0.9,4.03882
1,4.03421
1.1,4.03009
1.2,4.0261
1.3,4.02222
1.4,4.01855
1.5,4.01525
1.6,4.01216
1.7,4.00885
1.8,4.00593
1.9,4.00286
2,4.00014
2.1,3.99741
2.2,3.99461
2.3,3.99191
2.4,3.98948
2.5,3.98698
2.6,3.98472
2.7,3.98246
2.8,3.98007
2.9,3.97788
3,3.97576
3.1,3.97374
3.2,3.97178
3.3,3.96989
3.4,3.96771
3.5,3.9659
3.6,3.96403
3.7,3.96198
3.8,3.96054
3.9,3.95862
4,3.95674
4.1,3.95525
4.2,3.95355
4.3,3.95197
4.4,3.95049
4.5,3.94885
4.6,3.94742
4.7,3.94579
4.8,3.94449
4.9,3.94288
5,3.94168
5.1,3.94003
5.2,3.93893
5.3,3.93748
5.4,3.93606
5.5,3.93492
5.6,3.9337
5.7,3.93236
5.8,3.93097
5.9,3.92975
6,3.92848
6.1,3.92718
6.2,3.92605
6.3,3.92488
6.4,3.92371
6.5,3.9225
6.6,3.9216
6.7,3.92029
6.8,3.91929
6.9,3.91798
7,3.91701
7.1,3.91593
7.2,3.91497
7.3,3.91401
7.4,3.91296
7.5,3.91177
7.6,3.91086
7.7,3.90981
7.8,3.90879
7.9,3.90797
8,3.907
8.1,3.9061
8.2,3.90518
8.3,3.90427
8.4,3.90341
8.5,3.90223
8.6,3.90133
8.7,3.90045
8.8,3.89981
8.9,3.89887
9,3.89783
9.1,3.89681
9.2,3.89608
9.3,3.89521
9.4,3.8941
9.5,3.89348
9.6,3.89249
9.7,3.89194
9.8,3.89113
9.9,3.89042
10,3.88926
10.1,3.88876
10.2,3.88793
10.3,3.88722
10.4,3.88638
10.5,3.88564
10.6,3.88488
10.7,3.88404
10.8,3.88335
10.9,3.88266
11,3.88188
11.1,3.88121
11.2,3.88065
11.3,3.87987
11.4,3.87916
11.5,3.87842
11.6,3.87768
11.7,3.87709
11.8,3.87648
11.9,3.87581
12,3.87517
12.1,3.87432
12.2,3.87362
12.3,3.87315
12.4,3.87259
12.5,3.87192
12.6,3.87104
12.7,3.87038
12.8,3.86974
12.9,3.86926
13,3.86859
13.1,3.86789
13.2,3.86723
13.3,3.8668
13.4,3.8661
13.5,3.86541
13.6,3.86484
13.7,3.86422
13.8,3.86373
13.9,3.86308
14,3.86252
14.1,3.862
14.2,3.86125
14.3,3.86087
14.4,3.86026
14.5,3.85962
14.6,3.85911
14.7,3.85856
14.8,3.85811
14.9,3.85749
15,3.85702
15.1,3.85633
15.2,3.85569
15.3,3.85538
15.4,3.8547
15.5,3.85436
15.6,3.85347
15.7,3.85315
15.8,3.85268
15.9,3.85223
16,3.85177
16.1,3.85133
16.2,3.85059
16.3,3.85016
16.4,3.84964
16.5,3.8491
16.6,3.84864
16.7,3.84811
16.8,3.84764
16.9,3.8474
17,3.84671
17.1,3.84617
17.2,3.84581
17.3,3.84518
17.4,3.84485
17.5,3.84428
17.6,3.84404
17.7,3.84337
17.8,3.84298
17.9,3.84245
18,3.84209
18.1,3.84165
18.2,3.84109
18.3,3.8406
18.4,3.8402
18.5,3.83967
18.6,3.83939
18.7,3.83879
18.8,3.83833
18.9,3.8378
19,3.83747
19.1,3.83711
19.2,3.83647
19.3,3.83595
19.4,3.83559
19.5,3.83511
19.6,3.83472
19.7,3.83427
19.8,3.83376
19.9,3.83344
20,3.83308
20.1,3.83246
20.2,3.83211
20.3,3.83175
20.4,3.83133
20.5,3.83085
20.6,3.83042
20.7,3.83003
20.8,3.82976
20.9,3.82935
21,3.82867
21.1,3.82839
21.2,3.82792
21.3,3.82755
21.4,3.82722
21.5,3.82666
21.6,3.82639
21.7,3.82597
21.8,3.82571
21.9,3.82527
22,3.82486
22.1,3.82454
22.2,3.8243
22.3,3.82376
22.4,3.82343
22.5,3.82294
22.6,3.8227
22.7,3.82221
22.8,3.82186
22.9,3.82152
23,3.82086
23.1,3.8207
23.2,3.82032
23.3,3.81994
23.4,3.8196
23.5,3.81919
23.6,3.81891
23.7,3.81845
23.8,3.81827
23.9,3.8177
24,3.81738
24.1,3.81713
24.2,3.81676
24.3,3.81645
24.4,3.81618
24.5,3.8159
24.6,3.81524
24.7,3.81498
24.8,3.8147
24.9,3.81429
25,3.81404
25.1,3.81366
25.2,3.81339
25.3,3.81292
25.4,3.8127
25.5,3.81234
25.6,3.81195
25.7,3.81165
25.8,3.8115
25.9,3.81108
26,3.81071
26.1,3.81052
26.2,3.8101
26.3,3.80983
26.4,3.80932
26.5,3.8092
26.6,3.80888
26.7,3.80858
26.8,3.80812
26.9,3.80799
27,3.80782
27.1,3.80733
27.2,3.807
27.3,3.80656
27.4,3.80635
27.5,3.80604
27.6,3.80582
27.7,3.8055
27.8,3.80499
27.9,3.80485
28,3.80455
28.1,3.80424
28.2,3.80412
28.3,3.80382
28.4,3.80348
28.5,3.80299
28.6,3.80284
28.7,3.80256
28.8,3.80226
28.9,3.80172
29,3.80154
29.1,3.80112
29.2,3.80103
29.3,3.80069
29.4,3.80039
29.5,3.80007
29.6,3.79987
29.7,3.7994
29.8,3.79916
29.9,3.79888
30,3.79858
30.1,3.79828
30.2,3.79797
30.3,3.79752
30.4,3.79747
30.5,3.797
30.6,3.79683
30.7,3.79655
30.8,3.79619
30.9,3.79601
31,3.79546
31.1,3.79552
31.2,3.7951
31.3,3.79481
31.4,3.79456
31.5,3.79424
31.6,3.79395
31.7,3.7938
31.8,3.79335
31.9,3.79319
32,3.7929
32.1,3.79277
32.2,3.79243
32.3,3.79214
32.4,3.7918
32.5,3.79154
32.6,3.79139
32.7,3.79106
32.8,3.79079
32.9,3.79053
33,3.79027
33.1,3.79007
33.2,3.78985
33.3,3.78956
33.4,3.78927
33.5,3.78897
33.6,3.78885
33.7,3.78861
33.8,3.78834
33.9,3.78814
34,3.78767
34.1,3.78775
34.2,3.78729
34.3,3.78708
34.4,3.78674
34.5,3.7866
34.6,3.78644
34.7,3.78612
34.8,3.7859
34.9,3.7857
35,3.78521
35.1,3.78498
35.2,3.78482
35.3,3.7846
35.4,3.7843
35.5,3.78396
35.6,3.78406
35.7,3.78361
35.8,3.78337
35.9,3.78334
36,3.78285
36.1,3.78274
36.2,3.78255
36.3,3.7823
36.4,3.78216
36.5,3.78178
36.6,3.78169
36.7,3.78151
36.8,3.78122
36.9,3.78101
37,3.78081
37.1,3.78047
37.2,3.78031
37.3,3.77977
37.4,3.77972
37.5,3.77958
37.6,3.77944
37.7,3.77921
37.8,3.77903
37.9,3.77881
38,3.77852
38.1,3.77815
38.2,3.77829
38.3,3.77805
38.4,3.77763
38.5,3.7774
38.6,3.77719
38.7,3.77677
38.8,3.77681
38.9,3.77657
39,3.7764
39.1,3.77619
39.2,3.77575
39.3,3.7756
39.4,3.77547
39.5,3.77554
39.6,3.77519
39.7,3.77497
39.8,3.77466
39.9,3.77456
40,3.77417
40.1,3.77399
40.2,3.77392
40.3,3.77367
40.4,3.77338
40.5,3.77305
40.6,3.77297
40.7,3.77266
40.8,3.77246
40.9,3.77224
41,3.77214
41.1,3.77188
41.2,3.77174
41.3,3.77146
41.4,3.77127
41.5,3.77102
41.6,3.77089
41.7,3.77061
41.8,3.7706
41.9,3.77005
42,3.77
42.1,3.76975
42.2,3.76954
42.3,3.76914
42.4,3.76923
42.5,3.76892
42.6,3.76867
42.7,3.7685
42.8,3.76823
42.9,3.76812
43,3.76788
43.1,3.76778
43.2,3.76751
43.3,3.76747
43.4,3.76722
43.5,3.76687
43.6,3.76674
43.7,3.76666
43.8,3.76647
43.9,3.76632
44,3.76606
44.1,3.76583
44.2,3.76568
44.3,3.76537
44.4,3.76527
44.5,3.76523
44.6,3.76491
44.7,3.76463
44.8,3.76468
44.9,3.76456
45,3.76415
45.1,3.76406
45.2,3.76382
45.3,3.76355
45.4,3.76359
45.5,3.76327
45.6,3.76312
45.7,3.76286
45.8,3.76275
45.9,3.76263
46,3.76243
46.1,3.76203
46.2,3.76191
46.3,3.7616
46.4,3.76154
46.5,3.76148
46.6,3.76124
46.7,3.76107
46.8,3.76104
46.9,3.76086
47,3.76079
47.1,3.76059
47.2,3.76035
47.3,3.76014
47.4,3.75992
47.5,3.75966
47.6,3.75959
47.7,3.75944
47.8,3.7592
47.9,3.75905
48,3.75889
48.1,3.75864
48.2,3.75871
48.3,3.75835
48.4,3.75823
48.5,3.75815
48.6,3.75787
48.7,3.75786
48.8,3.75758
48.9,3.7574
49,3.75723
49.1,3.75721
49.2,3.75672
49.3,3.75678
49.4,3.7563
49.5,3.75631
49.6,3.75642
49.7,3.75612
49.8,3.75592
49.9,3.75587
50,3.75562
50.1,3.75558
50.2,3.75523
50.3,3.75514
50.4,3.75499
50.5,3.75479
50.6,3.75459
50.7,3.75436
50.8,3.75432
50.9,3.75428
51,3.754
51.1,3.75409
51.2,3.75382
51.3,3.75363
51.4,3.75343
51.5,3.75336
51.6,3.75317
51.7,3.7528
51.8,3.75262
51.9,3.75265
52,3.75229
52.1,3.75213
52.2,3.75208
52.3,3.75191
52.4,3.75174
52.5,3.75155
52.6,3.75127
52.7,3.75123
52.8,3.75107
52.9,3.75104
53,3.75088
53.1,3.75054
53.2,3.75052
53.3,3.75048
53.4,3.75012
53.5,3.75008
53.6,3.74995
53.7,3.74978
53.8,3.74948
53.9,3.74945
54,3.74923
54.1,3.74912
54.2,3.749
54.3,3.74877
54.4,3.74864
54.5,3.7485
54.6,3.74845
54.7,3.74824
54.8,3.74813
54.9,3.74802
55,3.74794
55.1,3.74788
55.2,3.74758
55.3,3.74741
55.4,3.74731
55.5,3.747
55.6,3.747
55.7,3.74691
55.8,3.74698
55.9,3.74678
56,3.74661
56.1,3.74651
56.2,3.74622
56.3,3.74598
56.4,3.74604
56.5,3.74586
56.6,3.74558
56.7,3.74563
56.8,3.74545
56.9,3.74526
57,3.74515
57.1,3.74511
57.2,3.74505
57.3,3.7449
57.4,3.7446
57.5,3.74436
57.6,3.74433
57.7,3.74426
57.8,3.74408
57.9,3.7439
58,3.74377
58.1,3.74364
58.2,3.74346
58.3,3.74345
58.4,3.74328
58.5,3.74303
58.6,3.74284
58.7,3.74284
58.8,3.74259
58.9,3.74261
59,3.74241
59.1,3.74223
59.2,3.74193
59.3,3.74198
59.4,3.74195
59.5,3.74171
59.6,3.74158
59.7,3.74144
59.8,3.74132
59.9,3.74128
60,3.74127
60.1,3.74089
60.2,3.74099
60.3,3.74082
60.4,3.74066
60.5,3.74044
60.6,3.74031
60.7,3.74012
60.8,3.74002
60.9,3.73989
61,3.73982
61.1,3.73962
61.2,3.73956
61.3,3.73932
61.4,3.73927
61.5,3.73917
61.6,3.739
61.7,3.73904
61.8,3.73884
61.9,3.73848
62,3.73859
62.1,3.73835
62.2,3.73821
62.3,3.73797
62.4,3.73807
62.5,3.73795
62.6,3.73771
62.7,3.73757
62.8,3.7376
62.9,3.73734
63,3.73717
63.1,3.73715
63.2,3.73689
63.3,3.73687
63.4,3.73661
63.5,3.73661
63.6,3.73639
63.7,3.73635
63.8,3.73634
63.9,3.73612
64,3.73598
64.1,3.73589
64.2,3.73566
64.3,3.73557
64.4,3.73536
64.5,3.73529
64.6,3.73517
64.7,3.73512
64.8,3.73485
64.9,3.73475
65,3.73454
65.1,3.73448
65.2,3.73435
65.3,3.73441
65.4,3.73404
65.5,3.73404
65.6,3.73396
65.7,3.73384
65.8,3.7337
65.9,3.7334
66,3.73337
66.1,3.73336
66.2,3.73317
66.3,3.73296
66.4,3.73303
66.5,3.73284
66.6,3.73264
66.7,3.73254
66.8,3.73242
66.9,3.73228
67,3.7323
67.1,3.73213
67.2,3.73199
67.3,3.73167
67.4,3.73163
67.5,3.73144
67.6,3.73146
67.7,3.73143
67.8,3.73131
67.9,3.73102
68,3.7309
68.1,3.73073
68.2,3.73069
68.3,3.73053
68.4,3.73047
68.5,3.73034
68.6,3.73013
68.7,3.73004
68.8,3.7299
68.9,3.72966
69,3.72975
69.1,3.7296
69.2,3.72936
69.3,3.72948
69.4,3.72925
69.5,3.72923
69.6,3.72904
69.7,3.7288
69.8,3.72868
69.9,3.72881
70,3.72857
70.1,3.72849
70.2,3.72848
70.3,3.72828
70.4,3.72817
70.5,3.72802
70.6,3.728
70.7,3.72798
70.8,3.72777
70.9,3.72769
71,3.72747
71.1,3.72735
71.2,3.72725
71.3,3.72707
71.4,3.72699
71.5,3.72688
71.6,3.72676
71.7,3.72656
71.8,3.72652
71.9,3.72646
72,3.72635
72.1,3.72625
72.2,3.72613
72.3,3.72612
72.4,3.72593
72.5,3.72574
72.6,3.72559
72.7,3.72538
72.8,3.72544
72.9,3.72513
73,3.7253
73.1,3.72502
73.2,3.72501
73.3,3.72491
73.4,3.72491
73.5,3.72469
73.6,3.7247
73.7,3.72442
73.8,3.72443
73.9,3.72442
74,3.72421
74.1,3.72402
74.2,3.72381
74.3,3.72373
74.4,3.72358
74.5,3.72355
74.6,3.72348
74.7,3.72333
74.8,3.72332
74.9,3.72325
75,3.72304
75.1,3.72302
75.2,3.7229
75.3,3.7228
75.4,3.72276
75.5,3.72252
75.6,3.72246
75.7,3.72223
75.8,3.72223
75.9,3.72211
76,3.72213
76.1,3.72185
76.2,3.72187
76.3,3.7218
76.4,3.72173
76.5,3.72153
76.6,3.72151
76.7,3.72138
76.8,3.72133
76.9,3.72103
77,3.72108
77.1,3.7211
77.2,3.72096
77.3,3.72074
77.4,3.72063
77.5,3.72054
77.6,3.72049
77.7,3.72044
77.8,3.72033
77.9,3.72018
78,3.72002
78.1,3.71988
78.2,3.71979
78.3,3.7197
78.4,3.71956
78.5,3.71954
78.6,3.71939
78.7,3.71924
78.8,3.71925
78.9,3.71918
79,3.71915
79.1,3.71896
79.2,3.71883
79.3,3.71877
79.4,3.71863
79.5,3.71843
79.6,3.71829
79.7,3.71829
79.8,3.7183
79.9,3.71809
80,3.71801
80.1,3.71784
80.2,3.71788
80.3,3.71774
80.4,3.71757
80.5,3.71758
80.6,3.71743
80.7,3.71733
80.8,3.71721
80.9,3.71709
81,3.71689
81.1,3.71706
81.2,3.71677
81.3,3.71676
81.4,3.71671
81.5,3.71635
81.6,3.71643
81.7,3.71637
81.8,3.71601
81.9,3.71615
82,3.71596
82.1,3.71588
82.2,3.71582
82.3,3.71573
82.4,3.7155
82.5,3.7156
82.6,3.71516
82.7,3.71513
82.8,3.715
82.9,3.71491
83,3.71477
83.1,3.71467
83.2,3.71471
83.3,3.71457
83.4,3.71454
83.5,3.71431
83.6,3.71427
83.7,3.71421
83.8,3.71422
83.9,3.71395
84,3.71387
84.1,3.71381
84.2,3.7136
84.3,3.71358
84.4,3.71352
84.5,3.71322
84.6,3.71321
84.7,3.71326
84.8,3.71312
84.9,3.7129
85,3.71293
85.1,3.71268
85.2,3.71264
85.3,3.71252
85.4,3.71241
85.5,3.71222
85.6,3.71208
85.7,3.71222
85.8,3.71199
85.9,3.71196
86,3.71164
86.1,3.71156
86.2,3.71148
86.3,3.71148
86.4,3.7114
86.5,3.71127
86.6,3.71134
86.7,3.71122
86.8,3.71104
86.9,3.71105
87,3.71075
87.1,3.71083
87.2,3.71065
87.3,3.71028
87.4,3.71046
87.5,3.7103
87.6,3.71035
87.7,3.7102
87.8,3.7101
87.9,3.70982
88,3.70985
88.1,3.70981
88.2,3.70973
88.3,3.70951
88.4,3.70951
88.5,3.7093
88.6,3.70925
88.7,3.70921
88.8,3.70901
88.9,3.70905
89,3.70895
89.1,3.70886
89.2,3.70885
89.3,3.70868
89.4,3.70871
89.5,3.7084
89.6,3.70844
89.7,3.7083
89.8,3.70831
89.9,3.70823
90,3.70801
90.1,3.70799
90.2,3.70789
90.3,3.7077
90.4,3.70766
90.5,3.70755
90.6,3.70755
90.7,3.70742
90.8,3.70742
90.9,3.70736
91,3.70713
91.1,3.70696
91.2,3.70683
91.3,3.70677
91.4,3.70674
91.5,3.70671
91.6,3.70636
91.7,3.7064
91.8,3.70626
91.9,3.70618
92,3.70599
92.1,3.70599
92.2,3.70602
92.3,3.70577
92.4,3.70572
92.5,3.7057
92.6,3.70563
92.7,3.70544
92.8,3.70547
92.9,3.70508
93,3.70512
93.1,3.70504
93.2,3.70491
93.3,3.70499
93.4,3.70477
93.5,3.70473
93.6,3.70454
93.7,3.70451
93.8,3.70429
93.9,3.70416
94,3.70425
94.1,3.7039
94.2,3.70406
94.3,3.70396
94.4,3.70373
94.5,3.70386
94.6,3.70369
94.7,3.70366
94.8,3.70336
94.9,3.70332
95,3.70335
95.1,3.70323
95.2,3.70301
95.3,3.70302
95.4,3.7028
95.5,3.70273
95.6,3.70285
95.7,3.70258
95.8,3.70258
95.9,3.70244
96,3.70246
96.1,3.7022
96.2,3.70207
96.3,3.70215
96.4,3.70189
96.5,3.70182
96.6,3.70176
96.7,3.70174
96.8,3.70163
96.9,3.70161
97,3.70143
97.1,3.70128
97.2,3.70117
97.3,3.70129
97.4,3.70106
97.5,3.70085
97.6,3.70075
97.7,3.70074
97.8,3.7006
97.9,3.7005
98,3.70042
98.1,3.70039
98.2,3.70028
98.3,3.70022
98.4,3.70016
98.5,3.70002
98.6,3.6999
98.7,3.69991
98.8,3.69961
98.9,3.69962
99,3.69963
99.1,3.69941
99.2,3.69947
99.3,3.69944
99.4,3.69939
99.5,3.69927
99.6,3.6992
99.7,3.69898
99.8,3.699
99.9,3.69891
100,3.69883
100.1,3.69878
100.2,3.69875
100.3,3.69858
100.4,3.69863
100.5,3.69841
100.6,3.69827
100.7,3.69822
100.8,3.69818
100.9,3.69819
101,3.69797
101.1,3.69798
101.2,3.69786
101.3,3.69789
101.4,3.69767
101.5,3.69787
101.6,3.6977
101.7,3.6975
101.8,3.69752
101.9,3.69741
102,3.69733
102.1,3.69714
102.2,3.69709
102.3,3.69724
102.4,3.69678
102.5,3.69679
102.6,3.6968
102.7,3.69674
102.8,3.69673
102.9,3.69674
103,3.69657
103.1,3.69636
103.2,3.69643
103.3,3.69632
103.4,3.69613
103.5,3.6962
103.6,3.69584
103.7,3.69591
103.8,3.69579
103.9,3.69566
104,3.69558
104.1,3.69564
104.2,3.69553
104.3,3.6953
104.4,3.69548
104.5,3.69522
104.6,3.69527
104.7,3.695
104.8,3.69499
104.9,3.69495
105,3.69473
105.1,3.69467
105.2,3.69457
105.3,3.69459
105.4,3.69451
105.5,3.6943
105.6,3.69436
105.7,3.69423
105.8,3.6941
105.9,3.694
106,3.69402
106.1,3.69392
106.2,3.69395
106.3,3.69391
106.4,3.6936
106.5,3.69361
106.6,3.69368
106.7,3.69343
106.8,3.6934
106.9,3.69328
107,3.69332
107.1,3.69297
107.2,3.69312
107.3,3.69286
107.4,3.69291
107.5,3.69282
107.6,3.69263
107.7,3.69253
107.8,3.69256
107.9,3.69238
108,3.69228
108.1,3.69214
108.2,3.69205
108.3,3.69211
108.4,3.69191
108.5,3.69186
108.6,3.69158
108.7,3.69162
108.8,3.69151
108.9,3.69159
109,3.69141
109.1,3.69124
109.2,3.69139
109.3,3.69126
109.4,3.69131
109.5,3.6913
109.6,3.69102
109.7,3.69111
109.8,3.69095
109.9,3.69113
110,3.69077
110.1,3.69069
110.2,3.69068
110.3,3.69046
110.4,3.69024
110.5,3.69034
110.6,3.69035
110.7,3.69032
110.8,3.69022
110.9,3.68991
111,3.69004
111.1,3.68999
111.2,3.68985
111.3,3.68971
111.4,3.68971
111.5,3.68953
111.6,3.68945
111.7,3.6893
111.8,3.68939
111.9,3.6892
112,3.68931
112.1,3.68923
112.2,3.68905
112.3,3.68898
112.4,3.68895
112.5,3.68884
112.6,3.68876
112.7,3.68885
112.8,3.68866
112.9,3.68868
113,3.68863
113.1,3.68855
113.2,3.68826
113.3,3.68807
113.4,3.68816
113.5,3.68813
113.6,3.68796
113.7,3.68806
113.8,3.68792
113.9,3.68778
114,3.68775
114.1,3.68749
114.2,3.68764
114.3,3.68759
114.4,3.68738
114.5,3.68764
114.6,3.68732
114.7,3.68728
114.8,3.68718
114.9,3.68702
115,3.68692
115.1,3.6871
115.2,3.68694
115.3,3.68694
115.4,3.68663
115.5,3.68672
115.6,3.68664
115.7,3.6865
115.8,3.6865
115.9,3.68648
116,3.6865
116.1,3.68646
116.2,3.68632
116.3,3.68629
116.4,3.68617
116.5,3.68599
116.6,3.6861
116.7,3.68588
116.8,3.68602
116.9,3.68583
117,3.6858
117.1,3.6859
117.2,3.68586
117.3,3.68558
117.4,3.68555
117.5,3.68548
117.6,3.68554
117.7,3.68523
117.8,3.68504
117.9,3.6852
118,3.68518
118.1,3.68498
118.2,3.68514
118.3,3.68508
118.4,3.68481
118.5,3.68471
118.6,3.68462
118.7,3.68455
118.8,3.68447
118.9,3.6845
119,3.68446
119.1,3.6842
119.2,3.68429
119.3,3.68422
119.4,3.68407
119.5,3.68408
119.6,3.68403
119.7,3.6841
119.8,3.68377
119.9,3.68378
120,3.68369
120.1,3.68366
120.2,3.68357
120.3,3.68357
120.4,3.68344
120.5,3.68344
120.6,3.68348
120.7,3.68333
120.8,3.68333
120.9,3.68331
121,3.68317
121.1,3.68316
121.2,3.68313
121.3,3.68294
121.4,3.68282
121.5,3.68275
121.6,3.68278
121.7,3.68278
121.8,3.68267
121.9,3.68266
122,3.68263
122.1,3.68244
122.2,3.68241
122.3,3.68239
122.4,3.68226
122.5,3.68232
122.6,3.68235
122.7,3.68207
122.8,3.68211
122.9,3.68198
123,3.682
123.1,3.68187
123.2,3.68173
123.3,3.68171
123.4,3.68178
123.5,3.68159
123.6,3.68175
123.7,3.68154
123.8,3.68149
123.9,3.68138
124,3.68141
124.1,3.68134
124.2,3.68124
124.3,3.68113
124.4,3.68106
124.5,3.68109
124.6,3.68094
124.7,3.68072
124.8,3.68093
124.9,3.6806
125,3.68073
125.1,3.68082
125.2,3.68054
125.3,3.68049
125.4,3.68035
125.5,3.68031
125.6,3.68041
125.7,3.68025
125.8,3.68025
125.9,3.68024
126,3.68013
126.1,3.68018
126.2,3.68002
126.3,3.67997
126.4,3.67982
126.5,3.67983
126.6,3.67967
126.7,3.6797
126.8,3.67973
126.9,3.67958
127,3.67962
127.1,3.67943
127.2,3.67936
127.3,3.67939
127.4,3.67913
127.5,3.67922
127.6,3.67898
127.7,3.67888
127.8,3.67896
127.9,3.67898
128,3.67885
128.1,3.67865
128.2,3.6786
128.3,3.67841
128.4,3.67823
128.5,3.6783
128.6,3.67829
128.7,3.67829
128.8,3.67809
128.9,3.67814
129,3.67817
129.1,3.67797
129.2,3.6779
129.3,3.6778
129.4,3.67788
129.5,3.6778
129.6,3.67783
129.7,3.67759
129.8,3.67743
129.9,3.6776
130,3.6775
130.1,3.67743
130.2,3.67748
130.3,3.67736
130.4,3.67734
130.5,3.67708
130.6,3.67729
130.7,3.6772
130.8,3.67716
130.9,3.67697
131,3.67687
131.1,3.67679
131.2,3.67678
131.3,3.67675
131.4,3.67683
131.5,3.67639
131.6,3.67662
131.7,3.67647
131.8,3.67635
131.9,3.67629
132,3.67643
132.1,3.67635
132.2,3.67622
132.3,3.67611
132.4,3.67604
132.5,3.67612
132.6,3.67588
132.7,3.67588
132.8,3.67571
132.9,3.67559
133,3.67571
133.1,3.6754
133.2,3.67544
133.3,3.67536
133.4,3.67535
133.5,3.67513
133.6,3.67505
133.7,3.67501
133.8,3.67492
133.9,3.67492
134,3.67493
134.1,3.67471
134.2,3.67472
134.3,3.67455
134.4,3.67465
134.5,3.67462
134.6,3.67441
134.7,3.67449
134.8,3.67442
134.9,3.67444
135,3.67413
135.1,3.67416
135.2,3.67409
135.3,3.67392
135.4,3.6738
135.5,3.67395
135.6,3.67369
135.7,3.67381
135.8,3.67362
135.9,3.67362
136,3.67367
136.1,3.67363
136.2,3.67346
136.3,3.67343
136.4,3.67334
136.5,3.67334
136.6,3.67327
136.7,3.67313
136.8,3.67304
136.9,3.67308
137,3.67303
137.1,3.673
137.2,3.6729
137.3,3.67288
137.4,3.67265
137.5,3.67262
137.6,3.67253
137.7,3.67249
137.8,3.67257
137.9,3.67243
138,3.67243
138.1,3.67232
138.2,3.67213
138.3,3.67217
138.4,3.67199
138.5,3.67198
138.6,3.67197
138.7,3.67188
138.8,3.67166
138.9,3.67174
139,3.67169
139.1,3.67166
139.2,3.67163
139.3,3.67148
139.4,3.67136
139.5,3.67115
139.6,3.67127
139.7,3.67124
139.8,3.671
139.9,3.6713
140,3.6711
140.1,3.67103
140.2,3.67095
140.3,3.67096
140.4,3.67085
140.5,3.67068
140.6,3.67055
140.7,3.67044
140.8,3.6704
140.9,3.67036
141,3.67042
141.1,3.67011
141.2,3.67005
141.3,3.67023
141.4,3.67006
141.5,3.67018
141.6,3.66991
141.7,3.6698
141.8,3.66985
141.9,3.66982
142,3.66961
142.1,3.66964
142.2,3.66965
142.3,3.66949
142.4,3.66937
142.5,3.66928
142.6,3.66929
142.7,3.66919
142.8,3.66926
142.9,3.66899
143,3.66897
143.1,3.66896
143.2,3.66906
143.3,3.66886
143.4,3.66884
143.5,3.66881
143.6,3.66851
143.7,3.66841
143.8,3.66844
143.9,3.66829
144,3.66846
144.1,3.66842
144.2,3.66793
144.3,3.66811
144.4,3.66803
144.5,3.66794
144.6,3.66802
144.7,3.66775
144.8,3.66782
144.9,3.66775
145,3.66775
145.1,3.66756
145.2,3.66753
145.3,3.66751
145.4,3.66751
145.5,3.66736
145.6,3.66733
145.7,3.66717
145.8,3.66733
145.9,3.66715
146,3.66718
146.1,3.66701
146.2,3.66689
146.3,3.6669
146.4,3.66678
146.5,3.6669
146.6,3.66668
146.7,3.66675
146.8,3.6667
146.9,3.66656
147,3.66651
147.1,3.66649
147.2,3.66633
147.3,3.66627
147.4,3.66619
147.5,3.66633
147.6,3.6661
147.7,3.66602
147.8,3.66598
147.9,3.66583
148,3.66576
148.1,3.66578
148.2,3.66582
148.3,3.66565
148.4,3.66555
148.5,3.66555
148.6,3.66544
148.7,3.66537
148.8,3.66546
148.9,3.66527
149,3.66532
149.1,3.66523
149.2,3.66532
149.3,3.66512
149.4,3.66497
149.5,3.66504
149.6,3.66491
149.7,3.66486
149.8,3.66476
149.9,3.66454
150,3.66469
150.1,3.66466
150.2,3.66452
150.3,3.66433
150.4,3.66437
150.5,3.66415
150.6,3.66431
150.7,3.66406
150.8,3.66414
150.9,3.66393
151,3.66396
151.1,3.66392
151.2,3.66389
151.3,3.6638
151.4,3.66382
151.5,3.66362
151.6,3.66366
151.7,3.66348
151.8,3.66342
151.9,3.66331
152,3.66336
152.1,3.66325
152.2,3.66318
152.3,3.66314
152.4,3.66309
152.5,3.66307
152.6,3.66305
152.7,3.66283
152.8,3.66284
152.9,3.6628
153,3.66265
153.1,3.66264
153.2,3.66258
153.3,3.66241
153.4,3.66225
153.5,3.66235
153.6,3.66211
153.7,3.66225
153.8,3.66208
153.9,3.66192
