Time,Stress
0,1.53757
0.1,1.5358
0.2,1.53276
0.3,1.53035
0.4,1.52831
0.5,1.52623
0.6,1.52441
0.7,1.52265
0.8,1.52119
0.9,1.51994
1,1.51879
1.1,1.51772
1.2,1.51674
1.3,1.51575
1.4,1.51484
1.5,1.51388
1.6,1.51307
1.7,1.51227
1.8,1.51144
1.9,1.5107
2,1.50996
2.1,1.50926
2.2,1.50852
2.3,1.50786
2.4,1.50717
2.5,1.50656
2.6,1.50591
2.7,1.50537
2.8,1.50474
2.9,1.50414
3,1.50357
3.1,1.50305
3.2,1.50249
3.3,1.50201
3.4,1.50143
3.5,1.50094
3.6,1.50042
3.7,1.49997
3.8,1.49944
3.9,1.49902
4,1.49857
4.1,1.49803
4.2,1.49765
4.3,1.49723
4.4,1.49683
4.5,1.49642
4.6,1.49597
4.7,1.4955
4.8,1.4951
4.9,1.49476
5,1.49435
5.1,1.49396
5.2,1.49363
5.3,1.49319
5.4,1.49284
5.5,1.49249
5.6,1.4921
5.7,1.49172
5.8,1.49139
5.9,1.491
6,1.49074
6.1,1.49038
6.2,1.49004
6.3,1.48971
6.4,1.48943
6.5,1.48911
6.6,1.48876
6.7,1.48847
6.8,1.48819
6.9,1.48788
7,1.48756
7.1,1.48724
7.2,1.48698
7.3,1.48669
7.4,1.48636
7.5,1.48609
7.6,1.48577
7.7,1.48547
7.8,1.4852
7.9,1.48494
8,1.48462
8.1,1.48443
8.2,1.48409
8.3,1.48383
8.4,1.48358
8.5,1.48334
8.6,1.48309
8.7,1.48285
8.8,1.48261
8.9,1.48229
9,1.48207
9.1,1.48182
9.2,1.48158
9.3,1.48137
9.4,1.4811
9.5,1.48085
9.6,1.48061
9.7,1.48042
9.8,1.48013
9.9,1.47992
10,1.47969
10.1,1.47947
10.2,1.47927
10.3,1.47897
10.4,1.47875
10.5,1.47857
10.6,1.47833
10.7,1.4782
10.8,1.47799
10.9,1.4777
11,1.47752
11.1,1.47729
11.2,1.4771
11.3,1.47693
11.4,1.47667
11.5,1.47648
11.6,1.47627
11.7,1.47606
11.8,1.4759
11.9,1.47569
12,1.47541
12.1,1.47527
12.2,1.47509
12.3,1.47489
12.4,1.47468
12.5,1.47453
12.6,1.47432
12.7,1.47413
12.8,1.47398
12.9,1.4738
13,1.4736
13.1,1.47341
13.2,1.47321
13.3,1.47299
13.4,1.4728
13.5,1.47268
13.6,1.47251
13.7,1.47239
13.8,1.47216
13.9,1.47199
14,1.4718
14.1,1.47163
14.2,1.47147
14.3,1.47129
14.4,1.47108
14.5,1.47097
14.6,1.47081
14.7,1.47061
14.8,1.47048
14.9,1.47033
15,1.47017
15.1,1.47001
15.2,1.46985
15.3,1.4697
15.4,1.46946
15.5,1.4693
15.6,1.4692
15.7,1.46903
15.8,1.46891
15.9,1.46876
16,1.46861
16.1,1.46847
16.2,1.46835
16.3,1.46812
16.4,1.46797
16.5,1.46782
16.6,1.46766
16.7,1.46749
16.8,1.46741
16.9,1.46723
17,1.46708
17.1,1.46694
17.2,1.46683
17.3,1.4667
17.4,1.46647
17.5,1.46636
17.6,1.46624
17.7,1.46607
17.8,1.46594
17.9,1.46583
18,1.46572
18.1,1.4656
18.2,1.46542
18.3,1.46528
18.4,1.46517
18.5,1.465
18.6,1.46489
18.7,1.46478
18.8,1.46459
18.9,1.46445
19,1.46431
19.1,1.46416
19.2,1.46408
19.3,1.46396
19.4,1.46377
19.5,1.46361
19.6,1.46357
19.7,1.4634
19.8,1.46332
19.9,1.46318
20,1.46311
20.1,1.46296
20.2,1.46278
20.3,1.46271
20.4,1.46254
20.5,1.46245
20.6,1.46233
20.7,1.4622
20.8,1.46209
20.9,1.46194
21,1.46185
21.1,1.46171
21.2,1.4616
21.3,1.46147
21.4,1.46138
21.5,1.46121
21.6,1.46108
21.7,1.46102
21.8,1.4609
21.9,1.4608
22,1.46062
22.1,1.46058
22.2,1.46042
22.3,1.46031
22.4,1.46022
22.5,1.46007
22.6,1.45999
22.7,1.45986
22.8,1.45976
22.9,1.45972
23,1.45958
23.1,1.45951
23.2,1.45937
23.3,1.45923
23.4,1.45912
23.5,1.459
23.6,1.45887
23.7,1.45884
23.8,1.4587
23.9,1.45861
24,1.45853
24.1,1.45844
24.2,1.45833
24.3,1.45823
24.4,1.45806
24.5,1.45799
24.6,1.4579
24.7,1.45775
24.8,1.4577
24.9,1.45764
25,1.45748
25.1,1.45742
25.2,1.45728
25.3,1.45713
25.4,1.4571
25.5,1.45703
25.6,1.45694
25.7,1.45682
25.8,1.45673
25.9,1.45664
26,1.45655
26.1,1.45651
26.2,1.45635
26.3,1.45629
26.4,1.4562
26.5,1.45606
26.6,1.456
26.7,1.45589
26.8,1.4558
26.9,1.45571
27,1.45565
27.1,1.45547
27.2,1.4554
27.3,1.45535
27.4,1.45525
27.5,1.45524
27.6,1.45502
27.7,1.45501
27.8,1.45495
27.9,1.4548
28,1.45468
28.1,1.45465
28.2,1.45457
28.3,1.45446
28.4,1.4544
28.5,1.45432
28.6,1.45419
28.7,1.45413
28.8,1.45401
28.9,1.45398
29,1.45388
29.1,1.45377
29.2,1.45367
29.3,1.45359
29.4,1.45351
29.5,1.45342
29.6,1.4533
29.7,1.45329
29.8,1.45317
29.9,1.45312
30,1.45298
30.1,1.45289
30.2,1.45287
30.3,1.45269
30.4,1.45269
30.5,1.45255
30.6,1.45253
30.7,1.45242
30.8,1.45235
30.9,1.45228
31,1.45219
31.1,1.45209
31.2,1.45197
31.3,1.45193
31.4,1.45182
31.5,1.45177
31.6,1.45171
31.7,1.45161
31.8,1.45156
31.9,1.45146
32,1.45144
32.1,1.45141
32.2,1.45129
32.3,1.45121
32.4,1.45108
32.5,1.45104
32.6,1.45096
32.7,1.45089
32.8,1.45082
32.9,1.45075
33,1.45067
33.1,1.45058
33.2,1.45051
33.3,1.45047
33.4,1.45036
33.5,1.45028
33.6,1.45019
33.7,1.45017
33.8,1.45002
33.9,1.44996
34,1.44988
34.1,1.44984
34.2,1.44974
34.3,1.44968
34.4,1.44959
34.5,1.44947
34.6,1.44953
34.7,1.44941
34.8,1.44935
34.9,1.44925
35,1.4492
35.1,1.44912
35.2,1.44906
35.3,1.44896
35.4,1.4489
35.5,1.44881
35.6,1.4488
35.7,1.44872
35.8,1.44862
35.9,1.44854
36,1.44843
36.1,1.44839
36.2,1.44831
36.3,1.44829
36.4,1.44816
36.5,1.44807
36.6,1.44803
36.7,1.44798
36.8,1.4479
36.9,1.44783
37,1.44772
37.1,1.44773
37.2,1.44764
37.3,1.44761
37.4,1.44752
37.5,1.44744
37.6,1.44739
37.7,1.44732
37.8,1.44727
37.9,1.44715
38,1.44713
38.1,1.44704
38.2,1.44692
38.3,1.44694
38.4,1.44684
38.5,1.44677
38.6,1.44668
38.7,1.44665
38.8,1.44658
38.9,1.44653
39,1.44643
39.1,1.44642
39.2,1.44636
39.3,1.44625
39.4,1.44614
39.5,1.44613
39.6,1.44606
39.7,1.44595
39.8,1.44593
39.9,1.44583
40,1.44578
40.1,1.44574
40.2,1.4457
40.3,1.44564
40.4,1.44554
40.5,1.44549
40.6,1.44541
40.7,1.44531
40.8,1.44528
40.9,1.44523
41,1.44517
41.1,1.44509
41.2,1.44508
41.3,1.44494
41.4,1.44489
41.5,1.44487
41.6,1.4448
41.7,1.44475
41.8,1.44467
41.9,1.44463
42,1.44461
42.1,1.44455
42.2,1.4445
42.3,1.44442
42.4,1.44436
42.5,1.44428
42.6,1.44421
42.7,1.44419
42.8,1.44409
42.9,1.44408
43,1.44399
43.1,1.44391
43.2,1.44388
43.3,1.44382
43.4,1.44377
43.5,1.44369
43.6,1.44363
43.7,1.44356
43.8,1.44353
43.9,1.44346
44,1.44343
44.1,1.44334
44.2,1.44328
44.3,1.44322
44.4,1.44314
44.5,1.44311
44.6,1.44305
44.7,1.44296
44.8,1.44292
44.9,1.4429
45,1.44287
45.1,1.44274
45.2,1.4427
45.3,1.44264
45.4,1.4426
45.5,1.44256
45.6,1.44246
45.7,1.4424
45.8,1.44236
45.9,1.44228
46,1.44225
46.1,1.44216
46.2,1.44216
46.3,1.44206
46.4,1.44203
46.5,1.44195
46.6,1.44189
46.7,1.44186
46.8,1.44178
46.9,1.44175
47,1.44171
47.1,1.44172
47.2,1.44162
47.3,1.44152
47.4,1.44153
47.5,1.4415
47.6,1.44143
47.7,1.44139
47.8,1.44129
47.9,1.44128
48,1.44124
48.1,1.44116
48.2,1.44109
48.3,1.44107
48.4,1.44099
48.5,1.44091
48.6,1.44087
48.7,1.44083
48.8,1.44077
48.9,1.44072
49,1.44072
49.1,1.4407
49.2,1.44061
49.3,1.44059
49.4,1.44051
49.5,1.44046
49.6,1.4404
49.7,1.4404
49.8,1.4403
49.9,1.44026
50,1.44019
50.1,1.44014
50.2,1.44007
50.3,1.44002
50.4,1.43994
50.5,1.43991
50.6,1.43989
50.7,1.43988
50.8,1.43977
50.9,1.4397
51,1.43968
51.1,1.43963
51.2,1.43961
51.3,1.43952
51.4,1.43947
51.5,1.4394
51.6,1.43936
51.7,1.43933
51.8,1.43924
51.9,1.4392
52,1.43918
52.1,1.4391
52.2,1.43909
52.3,1.43906
52.4,1.43899
52.5,1.43891
52.6,1.43892
52.7,1.43885
52.8,1.43876
52.9,1.43871
53,1.4387
53.1,1.43865
53.2,1.43859
53.3,1.43853
53.4,1.43848
53.5,1.43846
53.6,1.4384
53.7,1.43838
53.8,1.4383
53.9,1.4382
54,1.43821
54.1,1.43817
54.2,1.43811
54.3,1.43804
54.4,1.43801
54.5,1.43798
54.6,1.43794
54.7,1.43783
54.8,1.43785
54.9,1.4378
55,1.43774
55.1,1.43771
55.2,1.43764
55.3,1.43768
55.4,1.43753
55.5,1.4375
55.6,1.43746
55.7,1.43745
55.8,1.43746
55.9,1.43734
56,1.43729
56.1,1.43727
56.2,1.43722
56.3,1.43715
56.4,1.43708
56.5,1.4371
56.6,1.43705
56.7,1.43704
56.8,1.43693
56.9,1.43687
57,1.43686
57.1,1.43678
57.2,1.43681
57.3,1.43676
57.4,1.43671
57.5,1.43665
57.6,1.43661
57.7,1.43658
57.8,1.43646
57.9,1.43645
58,1.4364
58.1,1.43631
58.2,1.43631
58.3,1.43624
58.4,1.43616
58.5,1.43617
58.6,1.43616
58.7,1.43611
58.8,1.43608
58.9,1.43606
59,1.43599
59.1,1.43593
59.2,1.43588
59.3,1.43584
59.4,1.43576
59.5,1.43574
59.6,1.43572
59.7,1.43561
59.8,1.43558
59.9,1.43555
60,1.43555
60.1,1.43547
60.2,1.43551
60.3,1.43536
60.4,1.4354
60.5,1.43536
60.6,1.43528
60.7,1.43523
60.8,1.43523
60.9,1.43519
61,1.43513
61.1,1.43505
61.2,1.435
61.3,1.43501
61.4,1.43494
61.5,1.43486
61.6,1.4349
61.7,1.43482
61.8,1.43476
61.9,1.43472
62,1.43473
62.1,1.43462
62.2,1.43461
62.3,1.43456
62.4,1.43453
62.5,1.43448
62.6,1.43443
62.7,1.4344
62.8,1.43437
62.9,1.43427
63,1.43421
63.1,1.43423
63.2,1.43415
63.3,1.43413
63.4,1.43407
63.5,1.43402
63.6,1.43398
63.7,1.43394
63.8,1.43395
63.9,1.43392
64,1.43384
64.1,1.43381
64.2,1.43378
64.3,1.43371
64.4,1.43362
64.5,1.43361
64.6,1.43358
64.7,1.43358
64.8,1.43353
64.9,1.43353
65,1.43347
65.1,1.43342
65.2,1.4334
65.3,1.43331
65.4,1.43331
65.5,1.43322
65.6,1.43327
65.7,1.43317
65.8,1.4332
65.9,1.43312
66,1.43308
66.1,1.43303
66.2,1.43302
66.3,1.43299
66.4,1.43293
66.5,1.43292
66.6,1.43285
66.7,1.43285
66.8,1.43284
66.9,1.43277
67,1.43276
67.1,1.43271
67.2,1.43264
67.3,1.4326
67.4,1.43255
67.5,1.4325
67.6,1.43246
67.7,1.43246
67.8,1.43239
67.9,1.43242
68,1.43235
68.1,1.43231
68.2,1.43228
68.3,1.4322
68.4,1.43218
68.5,1.43214
68.6,1.43214
68.7,1.43205
68.8,1.43209
68.9,1.43203
69,1.43199
69.1,1.43192
69.2,1.43188
69.3,1.43186
69.4,1.43182
69.5,1.43175
69.6,1.43175
69.7,1.4317
69.8,1.43164
69.9,1.4316
70,1.43156
70.1,1.43152
70.2,1.4315
70.3,1.43146
70.4,1.43142
70.5,1.43139
70.6,1.43135
70.7,1.43127
70.8,1.43126
70.9,1.43125
71,1.43125
71.1,1.43112
71.2,1.43109
71.3,1.43109
71.4,1.43108
71.5,1.43101
71.6,1.43098
71.7,1.43095
71.8,1.43091
71.9,1.4309
72,1.43085
72.1,1.43081
72.2,1.43079
72.3,1.43077
72.4,1.43067
72.5,1.43069
72.6,1.4306
72.7,1.43063
72.8,1.43058
72.9,1.43049
73,1.4305
73.1,1.4305
73.2,1.43042
73.3,1.43041
73.4,1.43032
73.5,1.43032
73.6,1.4303
73.7,1.43025
73.8,1.43019
73.9,1.43016
74,1.43011
74.1,1.4301
74.2,1.43012
74.3,1.42996
74.4,1.42999
74.5,1.42999
74.6,1.42996
74.7,1.42998
74.8,1.42987
74.9,1.42981
75,1.42979
75.1,1.42978
75.2,1.42976
75.3,1.42973
75.4,1.42969
75.5,1.42963
75.6,1.42965
75.7,1.4296
75.8,1.42955
75.9,1.42952
76,1.42951
76.1,1.42947
76.2,1.42941
76.3,1.42936
76.4,1.42929
76.5,1.42931
76.6,1.42925
76.7,1.42923
76.8,1.42922
76.9,1.42919
77,1.42915
77.1,1.42912
77.2,1.42909
77.3,1.42906
77.4,1.42899
77.5,1.42896
77.6,1.42889
77.7,1.42887
77.8,1.42886
77.9,1.42883
78,1.4288
78.1,1.42874
78.2,1.42873
78.3,1.42871
78.4,1.4286
78.5,1.42862
78.6,1.42861
78.7,1.42855
78.8,1.42851
78.9,1.42847
79,1.42853
79.1,1.42844
79.2,1.42842
79.3,1.42839
79.4,1.42832
79.5,1.42833
79.6,1.42829
79.7,1.42824
79.8,1.42816
79.9,1.42817
80,1.42812
80.1,1.42803
80.2,1.42805
80.3,1.42801
80.4,1.42796
80.5,1.42797
80.6,1.42788
80.7,1.4279
80.8,1.42783
80.9,1.42783
81,1.42782
81.1,1.42775
81.2,1.4277
81.3,1.42771
81.4,1.42765
81.5,1.42759
81.6,1.42761
81.7,1.42753
81.8,1.42755
81.9,1.4275
82,1.42747
82.1,1.42741
82.2,1.42742
82.3,1.42735
82.4,1.42736
82.5,1.4273
82.6,1.42728
82.7,1.42725
82.8,1.42719
82.9,1.42714
83,1.42716
83.1,1.42711
83.2,1.42713
83.3,1.42709
83.4,1.42705
83.5,1.42702
83.6,1.42694
83.7,1.42693
83.8,1.42687
83.9,1.42684
84,1.4268
84.1,1.42682
84.2,1.42674
84.3,1.4267
84.4,1.42667
84.5,1.42665
84.6,1.4266
84.7,1.4266
84.8,1.42661
84.9,1.42655
85,1.42656
85.1,1.42653
85.2,1.42647
85.3,1.42647
85.4,1.42637
85.5,1.42636
85.6,1.42634
85.7,1.42637
85.8,1.42628
85.9,1.42622
86,1.42624
86.1,1.42619
86.2,1.42614
86.3,1.42613
86.4,1.4261
86.5,1.42605
86.6,1.42602
86.7,1.42602
86.8,1.426
86.9,1.42595
87,1.42592
87.1,1.42587
87.2,1.42588
87.3,1.42574
87.4,1.4258
87.5,1.42571
87.6,1.42572
87.7,1.42566
87.8,1.42563
87.9,1.42561
88,1.42557
88.1,1.42556
88.2,1.42552
88.3,1.42551
88.4,1.42547
88.5,1.42546
88.6,1.42539
88.7,1.42536
88.8,1.42539
88.9,1.42531
89,1.42525
89.1,1.42525
89.2,1.42525
89.3,1.42517
89.4,1.42519
89.5,1.42516
89.6,1.42509
89.7,1.42506
89.8,1.42503
89.9,1.42496
90,1.42498
90.1,1.42492
90.2,1.42492
90.3,1.42487
90.4,1.42487
90.5,1.42486
90.6,1.42478
90.7,1.42475
90.8,1.42474
90.9,1.42471
91,1.42469
91.1,1.42463
91.2,1.4246
91.3,1.42456
91.4,1.42455
91.5,1.42447
91.6,1.42453
91.7,1.42448
91.8,1.42444
91.9,1.42436
92,1.42433
92.1,1.42433
92.2,1.4243
92.3,1.42429
92.4,1.42429
92.5,1.42422
92.6,1.42427
92.7,1.42415
92.8,1.4242
92.9,1.4241
93,1.42409
93.1,1.42403
93.2,1.42407
93.3,1.42401
93.4,1.42397
93.5,1.42398
93.6,1.42389
93.7,1.42393
93.8,1.42385
93.9,1.42386
94,1.42384
94.1,1.42378
94.2,1.42368
94.3,1.42372
94.4,1.42369
94.5,1.42366
94.6,1.42363
94.7,1.42365
94.8,1.42362
94.9,1.4236
95,1.4236
95.1,1.42355
95.2,1.42351
95.3,1.42352
95.4,1.42346
95.5,1.42344
95.6,1.42341
95.7,1.42339
95.8,1.42332
95.9,1.42332
96,1.42328
96.1,1.42323
96.2,1.42319
96.3,1.42321
96.4,1.42314
96.5,1.42314
96.6,1.4231
96.7,1.42313
96.8,1.42306
96.9,1.42302
97,1.42302
97.1,1.42291
97.2,1.42296
97.3,1.42287
97.4,1.42286
97.5,1.4229
97.6,1.42281
97.7,1.42286
97.8,1.42276
97.9,1.42269
98,1.42272
98.1,1.42267
98.2,1.42267
98.3,1.4226
98.4,1.42261
98.5,1.42257
98.6,1.42254
98.7,1.42253
98.8,1.42251
98.9,1.42249
99,1.42247
99.1,1.42243
99.2,1.42241
99.3,1.42236
99.4,1.42236
99.5,1.4223
99.6,1.42229
99.7,1.4223
99.8,1.4222
99.9,1.42222
100,1.42217
100.1,1.42214
100.2,1.42209
100.3,1.42207
100.4,1.42203
100.5,1.42201
100.6,1.42197
100.7,1.42191
100.8,1.42186
100.9,1.42188
101,1.42183
101.1,1.42183
101.2,1.42179
101.3,1.42182
101.4,1.42172
101.5,1.42172
101.6,1.42173
101.7,1.42179
101.8,1.42171
101.9,1.42164
102,1.42167
102.1,1.42162
102.2,1.42157
102.3,1.42158
102.4,1.42151
102.5,1.42152
102.6,1.42149
102.7,1.42143
102.8,1.4214
102.9,1.42137
103,1.42139
103.1,1.42135
103.2,1.42131
103.3,1.42127
103.4,1.42124
103.5,1.42122
103.6,1.42117
103.7,1.42113
103.8,1.42116
103.9,1.42111
104,1.42102
104.1,1.42104
104.2,1.42097
104.3,1.42095
104.4,1.42095
104.5,1.42089
104.6,1.42089
104.7,1.42089
104.8,1.42087
104.9,1.42082
105,1.42081
105.1,1.42079
105.2,1.42075
105.3,1.42071
105.4,1.4207
105.5,1.42068
105.6,1.42062
105.7,1.42056
105.8,1.42058
105.9,1.42053
106,1.42054
106.1,1.42056
106.2,1.42047
106.3,1.42042
106.4,1.4204
106.5,1.42035
106.6,1.42034
106.7,1.42029
106.8,1.42031
106.9,1.42024
107,1.42023
107.1,1.42021
107.2,1.42015
107.3,1.42016
107.4,1.42013
107.5,1.42012
107.6,1.42012
107.7,1.42006
107.8,1.41999
107.9,1.42001
108,1.41995
108.1,1.41992
108.2,1.41993
108.3,1.41991
108.4,1.4199
108.5,1.41989
108.6,1.41985
108.7,1.4198
108.8,1.41981
108.9,1.41977
109,1.41972
109.1,1.41974
109.2,1.41971
109.3,1.41963
109.4,1.41961
109.5,1.41957
109.6,1.41955
109.7,1.41954
109.8,1.41949
109.9,1.41946
110,1.41942
110.1,1.4194
110.2,1.41938
110.3,1.41936
110.4,1.41934
110.5,1.41931
110.6,1.41928
110.7,1.41927
110.8,1.4193
110.9,1.41919
111,1.4192
111.1,1.4192
111.2,1.41912
111.3,1.4191
111.4,1.41913
111.5,1.41909
111.6,1.41907
111.7,1.41899
111.8,1.41904
111.9,1.41896
112,1.41898
112.1,1.41897
112.2,1.41894
112.3,1.4189
112.4,1.41886
112.5,1.41881
112.6,1.41884
112.7,1.41883
112.8,1.41882
112.9,1.41877
113,1.41877
113.1,1.41873
113.2,1.41868
113.3,1.41863
113.4,1.41864
113.5,1.41863
113.6,1.4186
113.7,1.41855
113.8,1.41854
113.9,1.41854
114,1.41851
114.1,1.41847
114.2,1.41847
114.3,1.41848
114.4,1.41838
114.5,1.41839
114.6,1.4184
114.7,1.41835
114.8,1.41831
114.9,1.41832
115,1.4183
115.1,1.41825
115.2,1.41824
115.3,1.41818
115.4,1.41822
115.5,1.41816
115.6,1.41818
115.7,1.41814
115.8,1.41805
115.9,1.41805
116,1.41808
116.1,1.41796
116.2,1.41796
116.3,1.41797
116.4,1.41795
116.5,1.41794
116.6,1.41794
116.7,1.4179
116.8,1.41788
116.9,1.41788
117,1.41784
117.1,1.41779
117.2,1.41782
117.3,1.41781
117.4,1.41774
117.5,1.41777
117.6,1.41769
117.7,1.41767
117.8,1.41764
117.9,1.41764
118,1.41761
118.1,1.41759
118.2,1.41756
118.3,1.41753
118.4,1.41753
118.5,1.41748
118.6,1.41754
118.7,1.41749
118.8,1.41747
118.9,1.41745
119,1.41741
119.1,1.41738
119.2,1.41737
119.3,1.41735
119.4,1.41731
119.5,1.41727
119.6,1.41725
119.7,1.41724
119.8,1.41718
119.9,1.41717
120,1.41715
120.1,1.41714
120.2,1.41714
120.3,1.41708
120.4,1.41709
120.5,1.41701
120.6,1.41701
120.7,1.417
120.8,1.41701
120.9,1.41699
121,1.41695
121.1,1.41695
121.2,1.41694
121.3,1.41689
121.4,1.41682
121.5,1.41685
121.6,1.41681
121.7,1.41683
121.8,1.41679
121.9,1.41674
122,1.41672
122.1,1.41671
122.2,1.41667
122.3,1.41662
122.4,1.41663
122.5,1.41666
122.6,1.41661
122.7,1.41657
122.8,1.41655
122.9,1.41658
123,1.4165
123.1,1.41651
123.2,1.4165
123.3,1.4165
123.4,1.41643
123.5,1.41638
123.6,1.41635
123.7,1.41637
123.8,1.41641
123.9,1.41637
124,1.4163
124.1,1.41626
124.2,1.41627
124.3,1.4163
124.4,1.41623
124.5,1.41624
124.6,1.41616
124.7,1.41615
124.8,1.41611
124.9,1.41608
125,1.41606
125.1,1.416
125.2,1.41602
125.3,1.41605
125.4,1.41604
125.5,1.41602
125.6,1.41599
125.7,1.41598
125.8,1.41597
125.9,1.41592
126,1.41593
126.1,1.41589
126.2,1.41589
126.3,1.41582
126.4,1.41576
126.5,1.41576
126.6,1.41572
126.7,1.41573
126.8,1.41573
126.9,1.4157
127,1.41568
127.1,1.41569
127.2,1.41563
127.3,1.41563
127.4,1.41555
127.5,1.41557
127.6,1.41547
127.7,1.41552
127.8,1.41545
127.9,1.41549
128,1.41541
128.1,1.41539
128.2,1.41535
128.3,1.41533
128.4,1.41535
128.5,1.41532
128.6,1.41532
128.7,1.41526
128.8,1.41531
128.9,1.41532
129,1.41523
129.1,1.41521
129.2,1.41517
129.3,1.41516
129.4,1.4151
129.5,1.41511
129.6,1.41511
129.7,1.41503
129.8,1.41509
129.9,1.41506
130,1.41505
130.1,1.41499
130.2,1.41502
130.3,1.41494
130.4,1.41492
130.5,1.41491
130.6,1.41493
130.7,1.41486
130.8,1.41486
130.9,1.41483
131,1.41475
131.1,1.41477
131.2,1.41479
131.3,1.41479
131.4,1.41477
131.5,1.41469
131.6,1.41467
131.7,1.41462
131.8,1.41466
131.9,1.41464
132,1.41459
132.1,1.41458
132.2,1.41451
132.3,1.41452
132.4,1.41448
132.5,1.41448
132.6,1.41445
132.7,1.41444
132.8,1.41441
132.9,1.41439
133,1.41439
133.1,1.41434
133.2,1.41436
133.3,1.41429
133.4,1.41428
133.5,1.41427
133.6,1.41421
133.7,1.41417
133.8,1.41423
133.9,1.41413
134,1.41414
134.1,1.41414
134.2,1.4141
134.3,1.41407
134.4,1.41408
134.5,1.41404
134.6,1.41401
134.7,1.41398
134.8,1.41402
134.9,1.41396
135,1.41399
135.1,1.41393
135.2,1.4139
135.3,1.41388
135.4,1.4139
135.5,1.41382
135.6,1.41377
135.7,1.41378
135.8,1.41377
135.9,1.41372
136,1.41372
136.1,1.41367
136.2,1.41369
136.3,1.41372
136.4,1.41359
136.5,1.41365
136.6,1.41359
136.7,1.41363
136.8,1.41354
136.9,1.41354
137,1.41355
137.1,1.41352
137.2,1.41349
137.3,1.41343
137.4,1.41343
137.5,1.41333
137.6,1.41339
137.7,1.41335
137.8,1.41338
137.9,1.41334
138,1.41332
138.1,1.41328
138.2,1.41328
138.3,1.41321
138.4,1.41326
138.5,1.41318
138.6,1.41315
138.7,1.41314
138.8,1.41316
138.9,1.41321
139,1.41317
139.1,1.41313
139.2,1.41306
139.3,1.41306
139.4,1.41304
139.5,1.41301
139.6,1.41297
139.7,1.41296
139.8,1.41294
139.9,1.4129
140,1.41288
140.1,1.41283
140.2,1.41286
140.3,1.41283
140.4,1.41279
140.5,1.41279
140.6,1.41276
140.7,1.41276
140.8,1.41272
140.9,1.41274
141,1.41272
141.1,1.41268
141.2,1.41265
141.3,1.41266
141.4,1.41266
141.5,1.41263
141.6,1.41263
141.7,1.41257
141.8,1.41253
141.9,1.41259
142,1.41256
142.1,1.41254
142.2,1.41255
142.3,1.41246
142.4,1.41247
142.5,1.41241
142.6,1.41246
142.7,1.41242
142.8,1.41243
142.9,1.4124
143,1.41238
143.1,1.41232
143.2,1.4123
143.3,1.41234
143.4,1.41222
143.5,1.41226
143.6,1.41222
143.7,1.41221
143.8,1.41225
143.9,1.4122
144,1.41217
144.1,1.41212
144.2,1.41208
144.3,1.41207
144.4,1.41203
144.5,1.41203
144.6,1.41203
144.7,1.41194
144.8,1.41194
144.9,1.41194
145,1.41191
145.1,1.4119
145.2,1.41183
145.3,1.41188
145.4,1.41185
145.5,1.4118
145.6,1.41184
145.7,1.4118
145.8,1.41175
145.9,1.41177
146,1.41177
146.1,1.41175
146.2,1.41173
146.3,1.41177
146.4,1.4116
146.5,1.41165
146.6,1.41162
146.7,1.41162
146.8,1.41161
146.9,1.41155
147,1.41159
147.1,1.41153
147.2,1.41151
147.3,1.4115
147.4,1.41143
147.5,1.41144
147.6,1.41141
147.7,1.41137
147.8,1.4114
147.9,1.41136
148,1.41132
148.1,1.41127
148.2,1.41127
148.3,1.41125
148.4,1.41124
148.5,1.41124
148.6,1.41121
148.7,1.41123
148.8,1.4112
148.9,1.41112
149,1.41112
149.1,1.41108
149.2,1.41112
149.3,1.41101
149.4,1.41106
149.5,1.41103
149.6,1.41099
149.7,1.41099
149.8,1.41097
149.9,1.41092
150,1.41095
150.1,1.41088
150.2,1.41089
150.3,1.41086
150.4,1.41085
150.5,1.41076
150.6,1.41074
150.7,1.41081
150.8,1.4108
150.9,1.41073
151,1.4107
151.1,1.4107
151.2,1.41074
151.3,1.41066
151.4,1.41061
151.5,1.41064
151.6,1.41062
151.7,1.41056
151.8,1.4105
151.9,1.41052
152,1.41046
152.1,1.41042
152.2,1.4104
152.3,1.41046
152.4,1.4104
152.5,1.41035
152.6,1.4103
152.7,1.41036
152.8,1.41033
152.9,1.41023
153,1.41026
153.1,1.41024
153.2,1.41018
153.3,1.41019
153.4,1.41019
153.5,1.41017
153.6,1.41015
153.7,1.41014
153.8,1.4101
153.9,1.41009
