Time,Stress
0,2.48348
0.1,2.47713
0.2,2.46884
0.3,2.4624
0.4,2.45497
0.5,2.44882
0.6,2.44387
0.7,2.43833
0.8,2.43357
0.9,2.42858
1,2.4243
1.1,2.42084
1.2,2.41729
1.3,2.4139
1.4,2.41052
1.5,2.40709
1.6,2.4027
1.7,2.4005
1.8,2.39765
1.9,2.39445
2,2.39147
2.1,2.38922
2.2,2.38599
2.3,2.38365
2.4,2.38105
2.5,2.378
2.6,2.37513
2.7,2.37319
2.8,2.37046
2.9,2.36904
3,2.36562
3.1,2.36402
3.2,2.36246
3.3,2.35957
3.4,2.35753
3.5,2.35573
3.6,2.35273
3.7,2.3517
3.8,2.34857
3.9,2.34719
4,2.34412
4.1,2.34313
4.2,2.34139
4.3,2.33979
4.4,2.33792
4.5,2.33549
4.6,2.33382
4.7,2.33217
4.8,2.33095
4.9,2.32864
5,2.32697
5.1,2.32502
5.2,2.32441
5.3,2.32213
5.4,2.32068
5.5,2.31822
5.6,2.31764
5.7,2.31618
5.8,2.314
5.9,2.31305
6,2.31129
6.1,2.30927
6.2,2.3087
6.3,2.30684
6.4,2.3061
6.5,2.30441
6.6,2.30242
6.7,2.30203
6.8,2.2999
6.9,2.29899
7,2.29777
7.1,2.29601
7.2,2.29463
7.3,2.29358
7.4,2.29254
7.5,2.29105
7.6,2.29
7.7,2.28862
7.8,2.28703
7.9,2.28658
8,2.28503
8.1,2.28359
8.2,2.2834
8.3,2.28186
8.4,2.28104
8.5,2.27983
8.6,2.27769
8.7,2.27734
8.8,2.27587
8.9,2.27556
9,2.27312
9.1,2.27253
9.2,2.27202
9.3,2.27094
9.4,2.26949
9.5,2.26861
9.6,2.26709
9.7,2.26663
9.8,2.26547
9.9,2.26442
10,2.26332
10.1,2.26212
10.2,2.2618
10.3,2.26143
10.4,2.26025
10.5,2.25824
10.6,2.25703
10.7,2.25613
10.8,2.25583
10.9,2.25407
11,2.25364
11.1,2.25322
11.2,2.25196
11.3,2.25048
11.4,2.24967
11.5,2.2493
11.6,2.24831
11.7,2.24833
11.8,2.24607
11.9,2.24536
12,2.244
12.1,2.24343
12.2,2.24274
12.3,2.2417
12.4,2.24054
12.5,2.24
12.6,2.23906
12.7,2.23818
12.8,2.23758
12.9,2.23687
13,2.23481
13.1,2.23507
13.2,2.23349
13.3,2.23299
13.4,2.23194
13.5,2.23125
13.6,2.22974
13.7,2.22956
13.8,2.22877
13.9,2.22784
14,2.22688
14.1,2.22591
14.2,2.22512
14.3,2.22364
14.4,2.22175
14.5,2.22296
14.6,2.22143
14.7,2.21992
14.8,2.21963
14.9,2.21876
15,2.21714
15.1,2.21706
15.2,2.21625
15.3,2.21477
15.4,2.21406
15.5,2.2137
15.6,2.21303
15.7,2.21124
15.8,2.21133
15.9,2.21009
16,2.20914
16.1,2.20794
16.2,2.20769
16.3,2.20611
16.4,2.20574
16.5,2.20576
16.6,2.20411
16.7,2.20331
16.8,2.20381
16.9,2.20169
17,2.2009
17.1,2.20126
17.2,2.19935
17.3,2.19851
17.4,2.19817
17.5,2.19725
17.6,2.19621
17.7,2.19429
17.8,2.19327
17.9,2.19295
18,2.19204
18.1,2.19149
18.2,2.1896
18.3,2.18952
18.4,2.18865
18.5,2.1876
18.6,2.18701
18.7,2.18588
18.8,2.18475
18.9,2.18453
19,2.18248
19.1,2.18242
19.2,2.18116
19.3,2.18017
19.4,2.17933
19.5,2.1783
19.6,2.17695
19.7,2.17669
19.8,2.17525
19.9,2.17464
20,2.17357
20.1,2.17293
20.2,2.17128
20.3,2.17123
20.4,2.16949
20.5,2.16789
20.6,2.16723
20.7,2.16592
20.8,2.16483
20.9,2.16369
21,2.16309
21.1,2.16193
21.2,2.16054
21.3,2.15882
21.4,2.15695
21.5,2.15574
21.6,2.15358
21.7,2.15327
21.8,2.15092
21.9,2.14962
22,2.14714
22.1,2.14243
22.2,2.13626
22.3,2.13217
22.4,2.12816
22.5,2.12165
22.6,2.11515
22.7,2.11132
22.8,2.10852
22.9,2.10597
23,2.10215
23.1,2.0996
23.2,2.09742
23.3,2.09536
23.4,2.09284
23.5,2.09212
23.6,2.08961
23.7,2.08746
23.8,2.08557
23.9,2.08453
24,2.08285
24.1,2.08153
24.2,2.08068
24.3,2.07884
24.4,2.0773
24.5,2.0769
24.6,2.07479
24.7,2.07465
24.8,2.07287
24.9,2.07272
25,2.07175
25.1,2.07047
25.2,2.06876
25.3,2.06855
25.4,2.06669
25.5,2.06612
25.6,2.06507
25.7,2.06381
25.8,2.06351
25.9,2.06141
26,2.06135
26.1,2.05979
26.2,2.0591
26.3,2.05737
26.4,2.05599
26.5,2.05604
26.6,2.05537
26.7,2.05341
26.8,2.05364
26.9,2.05322
27,2.05133
27.1,2.05042
27.2,2.04995
27.3,2.04968
27.4,2.0478
27.5,2.04701
27.6,2.04653
27.7,2.04581
27.8,2.04511
27.9,2.04456
28,2.04301
28.1,2.04305
28.2,2.04211
28.3,2.04148
28.4,2.04087
28.5,2.03981
28.6,2.03973
28.7,2.03792
28.8,2.03772
28.9,2.03689
29,2.0365
29.1,2.03594
29.2,2.03548
29.3,2.0342
29.4,2.03423
29.5,2.03283
29.6,2.03215
29.7,2.03143
29.8,2.03121
29.9,2.03055
30,2.02983
30.1,2.02945
30.2,2.02843
30.3,2.02828
30.4,2.02708
30.5,2.02742
30.6,2.027
30.7,2.02607
30.8,2.02546
30.9,2.02531
31,2.02504
31.1,2.02423
31.2,2.0232
31.3,2.02296
31.4,2.02242
31.5,2.02086
31.6,2.02074
31.7,2.02
31.8,2.01909
31.9,2.01961
32,2.01865
32.1,2.01821
32.2,2.01783
32.3,2.0179
32.4,2.01662
32.5,2.01629
32.6,2.0158
32.7,2.01583
32.8,2.01435
32.9,2.01443
33,2.01383
33.1,2.01229
33.2,2.0129
33.3,2.0124
33.4,2.01118
33.5,2.01062
33.6,2.0108
33.7,2.01028
33.8,2.00954
33.9,2.0092
34,2.00875
34.1,2.00746
34.2,2.00772
34.3,2.00766
34.4,2.00734
34.5,2.0069
34.6,2.00558
34.7,2.00629
34.8,2.00527
34.9,2.00424
35,2.00439
35.1,2.00362
35.2,2.00258
35.3,2.00313
35.4,2.00308
35.5,2.00225
35.6,2.00169
35.7,2.00015
35.8,2.00118
35.9,1.99996
36,2.00004
36.1,1.99951
36.2,1.9991
36.3,1.99829
36.4,1.99795
36.5,1.9979
36.6,1.99746
36.7,1.99604
36.8,1.99636
36.9,1.99615
37,1.99549
37.1,1.99467
37.2,1.9947
37.3,1.99427
37.4,1.99396
37.5,1.99317
37.6,1.99285
37.7,1.99258
37.8,1.99228
37.9,1.99199
38,1.99165
38.1,1.99094
38.2,1.99105
38.3,1.99
38.4,1.98989
38.5,1.98917
38.6,1.98859
38.7,1.98835
38.8,1.98795
38.9,1.98845
39,1.98781
39.1,1.9879
39.2,1.9866
39.3,1.98665
39.4,1.98639
39.5,1.98541
39.6,1.98584
39.7,1.98444
39.8,1.984
39.9,1.98383
40,1.98413
40.1,1.98339
40.2,1.98371
40.3,1.98216
40.4,1.98192
40.5,1.98103
40.6,1.98169
40.7,1.98116
40.8,1.98112
40.9,1.98004
41,1.97968
41.1,1.97979
41.2,1.97958
41.3,1.97962
41.4,1.97814
41.5,1.97904
41.6,1.97829
41.7,1.97757
41.8,1.97652
41.9,1.97632
42,1.97584
42.1,1.97593
42.2,1.97525
42.3,1.97494
42.4,1.97488
42.5,1.97477
42.6,1.97376
42.7,1.97339
42.8,1.97311
42.9,1.97334
43,1.97251
43.1,1.9716
43.2,1.97182
43.3,1.97164
43.4,1.97074
43.5,1.97163
43.6,1.97039
43.7,1.96965
43.8,1.96964
43.9,1.96945
44,1.96881
44.1,1.96818
44.2,1.96894
44.3,1.96807
44.4,1.9683
44.5,1.96784
44.6,1.96695
44.7,1.96707
44.8,1.96667
44.9,1.96596
45,1.96652
45.1,1.9661
45.2,1.96549
45.3,1.96472
45.4,1.96466
45.5,1.9644
45.6,1.96426
45.7,1.96413
45.8,1.96389
45.9,1.96293
46,1.96307
46.1,1.9629
46.2,1.96196
46.3,1.96185
46.4,1.96085
46.5,1.96119
46.6,1.96046
46.7,1.96052
46.8,1.96101
46.9,1.95992
47,1.95945
47.1,1.95988
47.2,1.95952
47.3,1.9578
47.4,1.95778
47.5,1.95833
47.6,1.95831
47.7,1.95782
47.8,1.95745
47.9,1.95632
48,1.95665
48.1,1.95578
48.2,1.95616
48.3,1.95467
48.4,1.95552
48.5,1.95511
48.6,1.95435
48.7,1.955
48.8,1.95423
48.9,1.9545
49,1.95336
49.1,1.95331
49.2,1.95274
49.3,1.95294
49.4,1.9523
49.5,1.95174
49.6,1.95189
49.7,1.95117
49.8,1.94983
49.9,1.95033
50,1.95086
50.1,1.951
50.2,1.94988
50.3,1.94938
50.4,1.94974
50.5,1.94788
50.6,1.94926
50.7,1.94859
50.8,1.9474
50.9,1.94704
51,1.94839
51.1,1.94765
51.2,1.94782
51.3,1.94704
51.4,1.9454
51.5,1.94595
51.6,1.94643
51.7,1.94639
51.8,1.94505
51.9,1.94533
52,1.94503
52.1,1.94441
52.2,1.94427
52.3,1.945
52.4,1.94362
52.5,1.94392
52.6,1.94377
52.7,1.9428
52.8,1.94257
52.9,1.94164
53,1.94154
53.1,1.94164
53.2,1.94169
53.3,1.94099
53.4,1.94103
53.5,1.94055
53.6,1.94102
53.7,1.94047
53.8,1.93996
53.9,1.9399
54,1.93927
54.1,1.93902
54.2,1.93882
54.3,1.93914
54.4,1.93842
54.5,1.9381
54.6,1.93727
54.7,1.93787
54.8,1.93716
54.9,1.9369
55,1.93716
55.1,1.9359
55.2,1.93658
55.3,1.93671
55.4,1.93646
55.5,1.93577
55.6,1.93539
55.7,1.93475
55.8,1.93574
55.9,1.9349
56,1.93439
56.1,1.93376
56.2,1.93347
56.3,1.93441
56.4,1.93413
56.5,1.93281
56.6,1.93288
56.7,1.93273
56.8,1.93254
56.9,1.93293
57,1.93281
57.1,1.93165
57.2,1.93096
57.3,1.93068
57.4,1.9304
57.5,1.93016
57.6,1.93071
57.7,1.93019
57.8,1.93073
57.9,1.92998
58,1.92999
58.1,1.92942
58.2,1.92963
58.3,1.92846
58.4,1.92902
58.5,1.92852
58.6,1.92887
58.7,1.92776
58.8,1.9285
58.9,1.92786
59,1.9275
59.1,1.92785
59.2,1.92674
59.3,1.92698
59.4,1.92584
59.5,1.92595
59.6,1.92621
59.7,1.92572
59.8,1.9261
59.9,1.92518
60,1.92566
60.1,1.92529
60.2,1.92435
60.3,1.92399
60.4,1.92376
60.5,1.92445
60.6,1.92283
60.7,1.92309
60.8,1.9234
60.9,1.92247
61,1.92268
61.1,1.92235
61.2,1.92254
61.3,1.92228
61.4,1.92192
61.5,1.92151
61.6,1.92132
61.7,1.92086
61.8,1.91972
61.9,1.92031
62,1.92031
62.1,1.92057
62.2,1.91985
62.3,1.91952
62.4,1.91974
62.5,1.91919
62.6,1.91841
62.7,1.91881
62.8,1.91896
62.9,1.91882
63,1.91903
63.1,1.91822
63.2,1.91834
63.3,1.91741
63.4,1.91846
63.5,1.9169
63.6,1.91699
63.7,1.91681
63.8,1.91628
63.9,1.91659
64,1.91595
64.1,1.91633
64.2,1.9153
64.3,1.91575
64.4,1.9154
64.5,1.91524
64.6,1.9148
64.7,1.91426
64.8,1.91476
64.9,1.914
65,1.91367
65.1,1.91358
65.2,1.91376
65.3,1.91322
65.4,1.91315
65.5,1.91211
65.6,1.91263
65.7,1.91205
65.8,1.91164
65.9,1.91168
66,1.91176
66.1,1.91134
66.2,1.91075
66.3,1.91069
66.4,1.91138
66.5,1.91075
66.6,1.91096
66.7,1.91067
66.8,1.90954
66.9,1.9096
67,1.90959
67.1,1.90979
67.2,1.90946
67.3,1.90986
67.4,1.90945
67.5,1.90878
67.6,1.90881
67.7,1.90809
67.8,1.90819
67.9,1.90869
68,1.90856
68.1,1.90786
68.2,1.90682
68.3,1.90771
68.4,1.90656
68.5,1.90668
68.6,1.90614
68.7,1.90654
68.8,1.90606
68.9,1.90564
69,1.906
69.1,1.90571
69.2,1.9052
69.3,1.90465
69.4,1.90442
69.5,1.90431
69.6,1.90445
69.7,1.90422
69.8,1.90447
69.9,1.90389
70,1.90344
70.1,1.90373
70.2,1.9034
70.3,1.90283
70.4,1.90297
70.5,1.90188
70.6,1.90227
70.7,1.9029
70.8,1.90201
70.9,1.9022
71,1.90179
71.1,1.90213
71.2,1.90123
71.3,1.90104
71.4,1.90088
71.5,1.90073
71.6,1.90105
71.7,1.90059
71.8,1.90055
71.9,1.9003
72,1.89976
72.1,1.90005
72.2,1.89924
72.3,1.89962
72.4,1.89968
72.5,1.89897
72.6,1.8986
72.7,1.89864
72.8,1.89844
72.9,1.89827
73,1.89836
73.1,1.89769
73.2,1.89708
73.3,1.89843
73.4,1.89634
73.5,1.89693
73.6,1.89675
73.7,1.89688
73.8,1.89645
73.9,1.89662
74,1.89653
74.1,1.89557
74.2,1.89531
74.3,1.89519
74.4,1.89636
74.5,1.89572
74.6,1.89468
74.7,1.89499
74.8,1.89447
74.9,1.89474
75,1.89427
75.1,1.89414
75.2,1.89423
75.3,1.89344
75.4,1.89364
75.5,1.89312
75.6,1.89359
75.7,1.89305
75.8,1.89242
75.9,1.89296
76,1.89269
76.1,1.89202
76.2,1.89234
76.3,1.89247
76.4,1.8921
76.5,1.8917
76.6,1.89158
76.7,1.8918
76.8,1.89097
76.9,1.89066
77,1.89068
77.1,1.89078
77.2,1.8901
77.3,1.88927
77.4,1.89053
77.5,1.88958
77.6,1.88982
77.7,1.88967
77.8,1.88939
77.9,1.88926
78,1.88849
78.1,1.88887
78.2,1.8892
78.3,1.88916
78.4,1.88868
78.5,1.88792
78.6,1.88754
78.7,1.88831
78.8,1.88736
78.9,1.88771
79,1.88746
79.1,1.88678
79.2,1.88686
79.3,1.88668
79.4,1.8863
79.5,1.8871
79.6,1.88675
79.7,1.88638
79.8,1.88515
79.9,1.8859
80,1.88558
80.1,1.88595
80.2,1.886
80.3,1.88498
80.4,1.88556
80.5,1.88523
80.6,1.88465
80.7,1.8843
80.8,1.88509
80.9,1.8845
81,1.88428
81.1,1.88423
81.2,1.88343
81.3,1.88373
81.4,1.88373
81.5,1.88344
81.6,1.88337
81.7,1.88252
81.8,1.88284
81.9,1.8828
82,1.8826
82.1,1.88229
82.2,1.88212
82.3,1.88206
82.4,1.88196
82.5,1.882
82.6,1.88113
82.7,1.88067
82.8,1.88143
82.9,1.88138
83,1.88077
83.1,1.88046
83.2,1.88023
83.3,1.88074
83.4,1.88016
83.5,1.87999
83.6,1.87971
83.7,1.87994
83.8,1.87978
83.9,1.87979
84,1.8797
84.1,1.87949
84.2,1.87936
84.3,1.87871
84.4,1.87827
84.5,1.87818
84.6,1.87825
84.7,1.87849
84.8,1.87774
84.9,1.87721
85,1.87823
85.1,1.87683
85.2,1.87757
85.3,1.87765
85.4,1.87671
85.5,1.87648
85.6,1.87682
85.7,1.87618
85.8,1.87649
85.9,1.87614
86,1.87541
86.1,1.87588
86.2,1.87556
86.3,1.87578
86.4,1.87536
86.5,1.87508
86.6,1.87579
86.7,1.87507
86.8,1.87473
86.9,1.87524
87,1.875
87.1,1.87371
87.2,1.87445
87.3,1.87435
87.4,1.87414
87.5,1.87404
87.6,1.87409
87.7,1.87331
87.8,1.87349
87.9,1.87364
88,1.87302
88.1,1.87344
88.2,1.87302
88.3,1.873
88.4,1.87313
88.5,1.87214
88.6,1.87255
88.7,1.87231
88.8,1.87157
88.9,1.87218
89,1.87163
89.1,1.87234
89.2,1.8713
89.3,1.87125
89.4,1.87065
89.5,1.8708
89.6,1.87138
89.7,1.87088
89.8,1.87072
89.9,1.86981
90,1.86984
90.1,1.86953
90.2,1.86962
90.3,1.86987
90.4,1.86949
90.5,1.86927
90.6,1.86915
90.7,1.86948
90.8,1.869
90.9,1.86882
91,1.86889
91.1,1.8691
91.2,1.86808
91.3,1.8678
91.4,1.86861
91.5,1.86844
91.6,1.86737
91.7,1.86671
91.8,1.8673
91.9,1.86758
92,1.86735
92.1,1.86689
92.2,1.867
92.3,1.86685
92.4,1.86714
92.5,1.86634
92.6,1.86639
92.7,1.8665
92.8,1.8659
92.9,1.86575
93,1.86569
93.1,1.86541
93.2,1.86532
93.3,1.86509
93.4,1.86517
93.5,1.86554
93.6,1.86468
93.7,1.86552
93.8,1.86535
93.9,1.86442
94,1.86444
94.1,1.86431
94.2,1.86457
94.3,1.86391
94.4,1.8634
94.5,1.8639
94.6,1.86389
94.7,1.863
94.8,1.86314
94.9,1.86311
95,1.86352
95.1,1.86222
95.2,1.86337
95.3,1.8625
95.4,1.86266
95.5,1.86184
95.6,1.86229
95.7,1.86202
95.8,1.86178
95.9,1.8611
96,1.86183
96.1,1.86155
96.2,1.86102
96.3,1.86142
96.4,1.86043
96.5,1.85966
96.6,1.86083
96.7,1.85978
96.8,1.86007
96.9,1.86014
97,1.85993
97.1,1.86001
97.2,1.85983
97.3,1.85945
97.4,1.8596
97.5,1.85922
97.6,1.85851
97.7,1.85943
97.8,1.85884
97.9,1.85851
98,1.85889
98.1,1.85831
98.2,1.85894
98.3,1.8586
98.4,1.85816
98.5,1.85775
98.6,1.85779
98.7,1.85735
98.8,1.85757
98.9,1.85719
99,1.85668
99.1,1.85729
99.2,1.85769
99.3,1.85704
99.4,1.85663
99.5,1.85711
99.6,1.85684
99.7,1.85624
99.8,1.85661
99.9,1.85656
100,1.8567
