Time,Stress
0,4.41357
0.1,4.39679
0.2,4.38148
0.3,4.36947
0.4,4.35903
0.5,4.34997
0.6,4.3413
0.7,4.33396
0.8,4.327
0.9,4.32015
1,4.31413
1.1,4.30842
1.2,4.30313
1.3,4.29816
1.4,4.29314
1.5,4.28843
1.6,4.28401
1.7,4.2797
1.8,4.27578
1.9,4.27187
2,4.26789
2.1,4.26419
2.2,4.26053
2.3,4.2571
2.4,4.25366
2.5,4.2502
2.6,4.24713
2.7,4.24405
2.8,4.24085
2.9,4.23799
3,4.23503
3.1,4.23214
3.2,4.22953
3.3,4.227
3.4,4.22398
3.5,4.22147
3.6,4.21902
3.7,4.21642
3.8,4.21408
3.9,4.21178
4,4.20936
4.1,4.20713
4.2,4.20493
4.3,4.20241
4.4,4.20034
4.5,4.19844
4.6,4.19623
4.7,4.1942
4.8,4.19209
4.9,4.19013
5,4.18808
5.1,4.18624
5.2,4.18429
5.3,4.18238
5.4,4.18064
5.5,4.17883
5.6,4.17686
5.7,4.17531
5.8,4.17353
5.9,4.17174
6,4.17022
6.1,4.16837
6.2,4.16672
6.3,4.16533
6.4,4.16354
6.5,4.16199
6.6,4.16026
6.7,4.15876
6.8,4.15715
6.9,4.15536
7,4.15408
7.1,4.15251
7.2,4.15096
7.3,4.14983
7.4,4.14806
7.5,4.14685
7.6,4.14546
7.7,4.14413
7.8,4.14261
7.9,4.14136
8,4.13984
8.1,4.1387
8.2,4.13729
8.3,4.13599
8.4,4.13482
8.5,4.13345
8.6,4.13218
8.7,4.13099
8.8,4.1297
8.9,4.12869
9,4.12722
9.1,4.12589
9.2,4.12473
9.3,4.1233
9.4,4.1222
9.5,4.12091
9.6,4.11981
9.7,4.11873
9.8,4.11756
9.9,4.1165
10,4.11549
10.1,4.11426
10.2,4.11312
10.3,4.11199
10.4,4.11095
10.5,4.10996
10.6,4.1088
10.7,4.10779
10.8,4.10675
10.9,4.10594
11,4.10474
11.1,4.10386
11.2,4.10269
11.3,4.10178
11.4,4.10086
11.5,4.09978
11.6,4.09887
11.7,4.09784
11.8,4.09696
11.9,4.09596
12,4.09505
12.1,4.09406
12.2,4.09311
12.3,4.09209
12.4,4.09111
12.5,4.09031
12.6,4.08913
12.7,4.0885
12.8,4.08761
12.9,4.0867
13,4.0858
13.1,4.08495
13.2,4.08408
13.3,4.0832
13.4,4.08237
13.5,4.08154
13.6,4.08068
13.7,4.07976
13.8,4.07896
13.9,4.07836
14,4.07733
14.1,4.07658
14.2,4.0757
14.3,4.07509
14.4,4.0742
14.5,4.07334
14.6,4.07278
14.7,4.07193
14.8,4.07104
14.9,4.07018
15,4.06948
15.1,4.06854
15.2,4.06765
15.3,4.06715
15.4,4.06629
15.5,4.06564
15.6,4.06486
15.7,4.06393
15.8,4.06324
15.9,4.06245
16,4.06181
16.1,4.06098
16.2,4.06024
16.3,4.05956
16.4,4.05892
16.5,4.05805
16.6,4.05741
16.7,4.05661
16.8,4.05606
16.9,4.05526
17,4.05457
17.1,4.05364
17.2,4.05301
17.3,4.05225
17.4,4.05192
17.5,4.05129
17.6,4.05044
17.7,4.0499
17.8,4.04918
17.9,4.0487
18,4.04792
18.1,4.0473
18.2,4.04661
18.3,4.04613
18.4,4.04533
18.5,4.04464
18.6,4.04414
18.7,4.04357
18.8,4.04293
18.9,4.04222
19,4.04161
19.1,4.04101
19.2,4.04048
19.3,4.03976
19.4,4.03916
19.5,4.03853
19.6,4.03803
19.7,4.03748
19.8,4.03681
19.9,4.03621
20,4.03574
20.1,4.03509
20.2,4.03463
20.3,4.03407
20.4,4.03327
20.5,4.03273
20.6,4.03196
20.7,4.03153
20.8,4.03077
20.9,4.03002
21,4.02961
21.1,4.02915
21.2,4.02855
21.3,4.02798
21.4,4.02727
21.5,4.0265
21.6,4.02607
21.7,4.02556
21.8,4.02487
21.9,4.02437
22,4.02388
22.1,4.02331
22.2,4.02278
22.3,4.02214
22.4,4.02166
22.5,4.02116
22.6,4.02062
22.7,4.02001
22.8,4.01969
22.9,4.01903
23,4.01856
23.1,4.01793
23.2,4.01724
23.3,4.01691
23.4,4.01637
23.5,4.01587
23.6,4.01536
23.7,4.01475
23.8,4.01424
23.9,4.01391
24,4.01329
24.1,4.01291
24.2,4.0124
24.3,4.01182
24.4,4.01164
24.5,4.01097
24.6,4.01053
24.7,4.01004
24.8,4.00948
24.9,4.00903
25,4.00855
25.1,4.00798
25.2,4.00768
25.3,4.00704
25.4,4.00657
25.5,4.00621
25.6,4.00568
25.7,4.00516
25.8,4.00482
25.9,4.00432
26,4.00372
26.1,4.00334
26.2,4.00282
26.3,4.00234
26.4,4.00192
26.5,4.00135
26.6,4.00101
26.7,4.00047
26.8,4.00016
26.9,3.9997
27,3.99914
27.1,3.99879
27.2,3.99823
27.3,3.99785
27.4,3.9974
27.5,3.99679
27.6,3.9965
27.7,3.99602
27.8,3.99584
27.9,3.99506
28,3.99492
28.1,3.9944
28.2,3.9939
28.3,3.99344
28.4,3.99288
28.5,3.99244
28.6,3.99213
28.7,3.99157
28.8,3.9911
28.9,3.99067
29,3.99032
29.1,3.98996
29.2,3.98943
29.3,3.98914
29.4,3.98874
29.5,3.98832
29.6,3.988
29.7,3.98764
29.8,3.98715
29.9,3.98691
30,3.98628
30.1,3.98599
30.2,3.98543
30.3,3.98509
30.4,3.98495
30.5,3.98442
30.6,3.98398
30.7,3.98374
30.8,3.98336
30.9,3.98287
31,3.98262
31.1,3.9821
31.2,3.98158
31.3,3.98138
31.4,3.98104
31.5,3.98062
31.6,3.98028
31.7,3.97979
31.8,3.97934
31.9,3.97897
32,3.97865
32.1,3.97823
32.2,3.97782
32.3,3.97757
32.4,3.97726
32.5,3.9769
32.6,3.97639
32.7,3.97628
32.8,3.97579
32.9,3.97547
33,3.97518
33.1,3.97471
33.2,3.97443
33.3,3.97405
33.4,3.97366
33.5,3.97354
33.6,3.97295
33.7,3.97266
33.8,3.97234
33.9,3.97174
34,3.97163
34.1,3.97117
34.2,3.97086
34.3,3.97055
34.4,3.97027
34.5,3.97006
34.6,3.9695
34.7,3.96922
34.8,3.96887
34.9,3.96835
35,3.96817
35.1,3.96776
35.2,3.96737
35.3,3.96707
35.4,3.96665
35.5,3.96626
35.6,3.9659
35.7,3.96559
35.8,3.96536
35.9,3.96509
36,3.96451
36.1,3.96435
36.2,3.96404
36.3,3.96375
36.4,3.96305
36.5,3.96286
36.6,3.96256
36.7,3.96228
36.8,3.96201
36.9,3.96155
37,3.96131
37.1,3.96099
37.2,3.96072
37.3,3.96038
37.4,3.96012
37.5,3.95984
37.6,3.95942
37.7,3.95907
37.8,3.95879
37.9,3.95843
38,3.9581
38.1,3.95782
38.2,3.95734
38.3,3.95701
38.4,3.95681
38.5,3.95656
38.6,3.95624
38.7,3.956
38.8,3.95564
38.9,3.95539
39,3.95501
39.1,3.95465
39.2,3.95449
39.3,3.95418
39.4,3.95377
39.5,3.9535
39.6,3.95347
39.7,3.95291
39.8,3.95278
39.9,3.95241
40,3.95227
40.1,3.95182
40.2,3.95159
40.3,3.95114
40.4,3.95101
40.5,3.95062
40.6,3.95034
40.7,3.95004
40.8,3.94968
40.9,3.94942
41,3.94922
41.1,3.94879
41.2,3.94857
41.3,3.94825
41.4,3.94809
41.5,3.94784
41.6,3.94749
41.7,3.9472
41.8,3.94687
41.9,3.94662
42,3.94647
42.1,3.94593
42.2,3.9457
42.3,3.9456
42.4,3.94515
42.5,3.94486
42.6,3.94467
42.7,3.94435
42.8,3.94417
42.9,3.94411
43,3.94365
43.1,3.94335
43.2,3.94311
43.3,3.94274
43.4,3.94242
43.5,3.94214
43.6,3.94186
43.7,3.94163
43.8,3.94143
43.9,3.94097
44,3.94077
44.1,3.94043
44.2,3.94021
44.3,3.93995
44.4,3.93973
44.5,3.93936
44.6,3.93925
44.7,3.93892
44.8,3.93866
44.9,3.93856
45,3.93806
45.1,3.93793
45.2,3.93772
45.3,3.93731
45.4,3.93723
45.5,3.93705
45.6,3.93653
45.7,3.93638
45.8,3.93622
45.9,3.93585
46,3.9356
46.1,3.93519
46.2,3.93513
46.3,3.93472
46.4,3.93472
46.5,3.93421
46.6,3.93404
46.7,3.93371
46.8,3.93349
46.9,3.93332
47,3.93307
47.1,3.93294
47.2,3.93256
47.3,3.93241
47.4,3.93215
47.5,3.93169
47.6,3.93147
47.7,3.93129
47.8,3.93106
47.9,3.93074
48,3.9305
48.1,3.93028
48.2,3.93003
48.3,3.92982
48.4,3.9294
48.5,3.92921
48.6,3.929
48.7,3.92875
48.8,3.92858
48.9,3.92826
49,3.92815
49.1,3.92777
49.2,3.92764
49.3,3.92717
49.4,3.92694
49.5,3.92669
49.6,3.92647
49.7,3.92635
49.8,3.92612
49.9,3.92584
50,3.92565
50.1,3.92535
50.2,3.92511
50.3,3.92483
50.4,3.92472
50.5,3.92433
50.6,3.92399
50.7,3.92391
50.8,3.92365
50.9,3.92345
51,3.92321
51.1,3.92292
51.2,3.92276
51.3,3.9226
51.4,3.9222
51.5,3.92213
51.6,3.92186
51.7,3.92157
51.8,3.92144
51.9,3.92096
52,3.92097
52.1,3.92078
52.2,3.92054
52.3,3.92042
52.4,3.92
52.5,3.91988
52.6,3.91957
52.7,3.9194
52.8,3.91931
52.9,3.91909
53,3.91864
53.1,3.91839
53.2,3.9182
53.3,3.91826
53.4,3.91785
53.5,3.91755
53.6,3.91747
53.7,3.91706
53.8,3.91697
53.9,3.91687
54,3.91664
54.1,3.91628
54.2,3.91592
54.3,3.91585
54.4,3.91558
54.5,3.91538
54.6,3.9153
54.7,3.91495
54.8,3.91467
54.9,3.91456
55,3.91426
55.1,3.91415
55.2,3.91394
55.3,3.91376
55.4,3.91354
55.5,3.91331
55.6,3.91315
55.7,3.91287
55.8,3.91277
55.9,3.91243
56,3.91218
56.1,3.91197
56.2,3.91163
56.3,3.91165
56.4,3.91138
56.5,3.91125
56.6,3.91092
56.7,3.91088
56.8,3.91062
56.9,3.91034
57,3.90995
57.1,3.90991
57.2,3.90956
57.3,3.90943
57.4,3.90904
57.5,3.90886
57.6,3.90885
57.7,3.9085
57.8,3.90843
57.9,3.90826
58,3.90792
58.1,3.9078
58.2,3.90754
58.3,3.90729
58.4,3.90725
58.5,3.90687
58.6,3.90664
58.7,3.90639
58.8,3.90627
58.9,3.90612
59,3.90595
59.1,3.90567
59.2,3.90545
59.3,3.90532
59.4,3.90509
59.5,3.90479
59.6,3.90482
59.7,3.90448
59.8,3.90458
59.9,3.90409
60,3.904
60.1,3.90371
60.2,3.90347
60.3,3.90338
60.4,3.90318
60.5,3.90307
60.6,3.90261
60.7,3.90258
60.8,3.90229
60.9,3.90191
61,3.90173
61.1,3.90159
61.2,3.90141
61.3,3.90127
61.4,3.90108
61.5,3.90083
61.6,3.90058
61.7,3.90042
61.8,3.90018
61.9,3.90005
62,3.89983
62.1,3.89959
62.2,3.89949
62.3,3.89936
62.4,3.89901
62.5,3.89901
62.6,3.89877
62.7,3.89838
62.8,3.89827
62.9,3.89826
63,3.89808
63.1,3.89774
63.2,3.89766
63.3,3.89745
63.4,3.89716
63.5,3.89705
63.6,3.89672
63.7,3.89655
63.8,3.89639
63.9,3.89627
64,3.8961
64.1,3.89598
64.2,3.89579
64.3,3.89558
64.4,3.89554
64.5,3.89531
64.6,3.89509
64.7,3.89501
64.8,3.89468
64.9,3.89458
65,3.8944
65.1,3.89406
65.2,3.89396
65.3,3.89384
65.4,3.89359
65.5,3.89339
65.6,3.89308
65.7,3.89319
65.8,3.89289
65.9,3.89274
66,3.89254
66.1,3.89254
66.2,3.89226
66.3,3.89209
66.4,3.89192
66.5,3.8919
66.6,3.89155
66.7,3.89149
66.8,3.89134
66.9,3.89125
67,3.89098
67.1,3.8907
67.2,3.89055
67.3,3.89043
67.4,3.89024
67.5,3.89027
67.6,3.89002
67.7,3.88995
67.8,3.88972
67.9,3.88957
68,3.88932
68.1,3.88918
68.2,3.889
68.3,3.88876
68.4,3.88868
68.5,3.8884
68.6,3.8884
68.7,3.88816
68.8,3.88802
68.9,3.88789
69,3.88774
69.1,3.8875
69.2,3.88724
69.3,3.88705
69.4,3.88711
69.5,3.8869
69.6,3.88693
69.7,3.88676
69.8,3.88658
69.9,3.88635
70,3.88623
70.1,3.88595
70.2,3.88573
70.3,3.88563
70.4,3.88549
70.5,3.88535
70.6,3.88512
70.7,3.88515
70.8,3.88493
70.9,3.88494
71,3.88455
71.1,3.88438
71.2,3.88446
71.3,3.88414
71.4,3.88387
71.5,3.88378
71.6,3.8836
71.7,3.88346
71.8,3.88318
71.9,3.88312
72,3.88293
72.1,3.88253
72.2,3.88252
72.3,3.88262
72.4,3.8822
72.5,3.88221
72.6,3.88202
72.7,3.88194
72.8,3.88162
72.9,3.88158
73,3.88148
73.1,3.88127
73.2,3.88105
73.3,3.88094
73.4,3.88091
73.5,3.88061
73.6,3.88049
73.7,3.88025
73.8,3.88011
73.9,3.88004
74,3.87987
74.1,3.8799
74.2,3.87963
74.3,3.87936
74.4,3.87929
74.5,3.87911
74.6,3.87911
74.7,3.87886
74.8,3.87872
74.9,3.87875
75,3.87839
75.1,3.87843
75.2,3.87811
75.3,3.87797
75.4,3.87778
75.5,3.87765
75.6,3.87744
75.7,3.87743
75.8,3.87722
75.9,3.87716
76,3.87698
76.1,3.87674
76.2,3.87663
76.3,3.87654
76.4,3.87643
76.5,3.87631
76.6,3.87617
76.7,3.87613
76.8,3.876
76.9,3.87581
77,3.87561
77.1,3.87567
77.2,3.87532
77.3,3.87527
77.4,3.87498
77.5,3.8749
77.6,3.87502
77.7,3.87492
77.8,3.87474
77.9,3.87455
78,3.87458
78.1,3.87411
78.2,3.87412
78.3,3.87411
78.4,3.87385
78.5,3.8737
78.6,3.87358
78.7,3.87346
78.8,3.87323
78.9,3.87314
79,3.87281
79.1,3.8731
79.2,3.87268
79.3,3.87263
79.4,3.87254
79.5,3.87231
79.6,3.87222
79.7,3.8722
79.8,3.87197
79.9,3.8717
80,3.87159
80.1,3.87146
80.2,3.87145
80.3,3.87112
80.4,3.87117
80.5,3.87087
80.6,3.87078
80.7,3.87067
80.8,3.87048
80.9,3.87027
81,3.87018
81.1,3.87013
81.2,3.8698
81.3,3.86972
81.4,3.86972
81.5,3.8695
81.6,3.86938
81.7,3.86932
81.8,3.86917
81.9,3.86909
82,3.86877
82.1,3.86867
82.2,3.86853
82.3,3.86844
82.4,3.86831
82.5,3.8681
82.6,3.86809
82.7,3.86784
82.8,3.8676
82.9,3.86777
83,3.86754
83.1,3.86739
83.2,3.86725
83.3,3.86713
83.4,3.86702
83.5,3.86682
83.6,3.86662
83.7,3.86637
83.8,3.86654
83.9,3.86618
84,3.86629
84.1,3.86616
84.2,3.86595
84.3,3.86566
84.4,3.8656
84.5,3.86554
84.6,3.86547
84.7,3.86542
84.8,3.86523
84.9,3.86518
85,3.86511
85.1,3.86491
85.2,3.86481
85.3,3.8645
85.4,3.86429
85.5,3.86429
85.6,3.86428
85.7,3.86384
85.8,3.86375
85.9,3.86377
86,3.86355
86.1,3.86358
86.2,3.86331
86.3,3.8632
86.4,3.86304
86.5,3.86297
86.6,3.86273
86.7,3.86251
86.8,3.86265
86.9,3.86233
87,3.86226
87.1,3.86215
87.2,3.8621
87.3,3.86196
87.4,3.86163
87.5,3.86159
87.6,3.86162
87.7,3.86139
87.8,3.86116
87.9,3.86114
88,3.86106
88.1,3.86089
88.2,3.86064
88.3,3.86053
88.4,3.86034
88.5,3.86033
88.6,3.86008
88.7,3.85987
88.8,3.85988
88.9,3.85972
89,3.85959
89.1,3.85949
89.2,3.85939
89.3,3.85929
89.4,3.85914
89.5,3.85914
89.6,3.85895
89.7,3.85883
89.8,3.85874
89.9,3.85846
90,3.85841
90.1,3.85817
90.2,3.85816
90.3,3.85798
90.4,3.858
90.5,3.85793
90.6,3.85764
90.7,3.85758
90.8,3.85762
90.9,3.85744
91,3.85724
91.1,3.85707
91.2,3.85694
91.3,3.85688
91.4,3.85662
91.5,3.85658
91.6,3.85646
91.7,3.85619
91.8,3.85617
91.9,3.85608
92,3.85585
92.1,3.85567
92.2,3.85562
92.3,3.8554
92.4,3.85539
92.5,3.85517
92.6,3.855
92.7,3.85499
92.8,3.85462
92.9,3.85454
93,3.85471
93.1,3.85432
93.2,3.85429
93.3,3.85419
93.4,3.85402
93.5,3.85389
93.6,3.85368
93.7,3.85343
93.8,3.85342
93.9,3.85315
94,3.85317
94.1,3.85309
94.2,3.85284
94.3,3.85268
94.4,3.85262
94.5,3.85245
94.6,3.85218
94.7,3.8522
94.8,3.8522
94.9,3.85206
95,3.85169
95.1,3.85167
95.2,3.85161
95.3,3.85147
95.4,3.85126
95.5,3.85122
95.6,3.85103
95.7,3.85084
95.8,3.85071
95.9,3.85075
96,3.85054
96.1,3.85043
96.2,3.85027
96.3,3.85014
96.4,3.85008
96.5,3.85007
96.6,3.84974
96.7,3.84972
96.8,3.8496
96.9,3.84936
97,3.84936
97.1,3.8493
97.2,3.84925
97.3,3.84897
97.4,3.84904
97.5,3.84879
97.6,3.84891
97.7,3.84859
97.8,3.84848
97.9,3.84858
98,3.84816
98.1,3.84804
98.2,3.84789
98.3,3.84801
98.4,3.84801
98.5,3.84776
98.6,3.84782
98.7,3.84756
98.8,3.84737
98.9,3.84734
99,3.84722
99.1,3.84698
99.2,3.84704
99.3,3.84691
99.4,3.84687
99.5,3.84661
99.6,3.84651
99.7,3.8466
99.8,3.84641
99.9,3.84636
99.999,3.84618
100,3.84618
100.01,3.84615
