Time,Stress,Derivative,SecondDerivative
0,2.48348,,
0.1,2.47713,-0.063500000000003,
0.2,2.46884,-0.08289999999999687,
0.3,2.4624,-0.06440000000000003,-0.6440000000000005
0.4,2.45497,-0.07430000000000267,
0.5,2.44882,-0.06149999999999879,0.2139999999999808
0.6,2.44387,-0.04950000000000011,0.24800000000002562
0.7,2.43833,-0.0553999999999988,
0.8,2.43357,-0.04760000000000093,0.13899999999997847
0.9,2.42858,-0.04989999999999829,
1,2.4243,-0.04280000000000062,0.1259999999999818
1.1,2.42084,-0.03460000000000016,0.1529999999999812
1.2,2.41729,-0.03550000000000169,
1.3,2.4139,-0.03390000000000001,0.089000000000006
1.4,2.41052,-0.03379999999999943,0.017000000000022646
1.5,2.40709,-0.03429999999999819,
1.6,2.4027,-0.04390000000000334,
1.7,2.4005,-0.021999999999997605,0.11900000000002424
1.8,2.39765,-0.028500000000000168,
1.9,2.39445,-0.03200000000000096,
2,2.39147,-0.0297999999999998,0.14100000000003526
2.1,2.38922,-0.022500000000000832,0.09500000000000118
2.2,2.38599,-0.03229999999999841,
2.3,2.38365,-0.02340000000000239,0.0639999999999743
2.4,2.38105,-0.025999999999997112,
2.5,2.378,-0.030499999999999944,
2.6,2.37513,-0.028700000000001478,0.03599999999996932
2.7,2.37319,-0.01939999999999829,0.11100000000001643
2.8,2.37046,-0.02730000000000131,
2.9,2.36904,-0.014199999999999756,0.1450000000000171
3,2.36562,-0.03420000000000198,
3.1,2.36402,-0.015999999999998224,0.11300000000003076
3.2,2.36246,-0.015600000000000044,0.18600000000001918
3.3,2.35957,-0.028899999999998476,
3.4,2.35753,-0.0204000000000004,-0.04400000000002172
3.5,2.35573,-0.01800000000000244,0.10899999999996025
3.6,2.35273,-0.029999999999996668,
3.7,2.3517,-0.010300000000000855,0.10099999999999536
3.8,2.34857,-0.03130000000000088,
3.9,2.34719,-0.013800000000001577,0.1619999999999508
4,2.34412,-0.030699999999996813,
4.1,2.34313,-0.009900000000002719,0.2139999999999824
4.2,2.34139,-0.017399999999998434,
4.3,2.33979,-0.016000000000002734,0.14699999999994132
4.4,2.33792,-0.018699999999998062,
4.5,2.33549,-0.02429999999999941,
4.6,2.33382,-0.016700000000002883,0.006999999999955539
4.7,2.33217,-0.016499999999996986,0.07800000000002381
4.8,2.33095,-0.012200000000000032,0.04500000000002867
4.9,2.32864,-0.02310000000000022,
5,2.32697,-0.016699999999998442,-0.0020000000000145665
5.1,2.32502,-0.019500000000003473,
5.2,2.32441,-0.006099999999999962,0.17000000000000168
5.3,2.32213,-0.022799999999998457,
5.4,2.32068,-0.014500000000001656,0.050000000000017905
5.5,2.31822,-0.024599999999996933,
5.6,2.31764,-0.005800000000002491,0.16999999999996027
5.7,2.31618,-0.01459999999999787,
5.8,2.314,-0.021800000000000784,
5.9,2.31305,-0.009500000000000014,0.15099999999996838
6,2.31129,-0.0175999999999999,
6.1,2.30927,-0.02019999999999918,
6.2,2.3087,-0.005700000000001784,0.16099999999998915
6.3,2.30684,-0.018600000000002014,
6.4,2.3061,-0.00739999999999959,0.1279999999999952
6.5,2.30441,-0.016899999999999752,
6.6,2.30242,-0.01989999999999721,
6.7,2.30203,-0.0039000000000033244,0.14699999999998611
6.8,2.2999,-0.02129999999999751,
6.9,2.29899,-0.009100000000001836,0.10799999999995319
7,2.29777,-0.012200000000000032,
7.1,2.29601,-0.0175999999999999,
7.2,2.29463,-0.013799999999997075,0.07500000000000394
7.3,2.29358,-0.010500000000002212,0.07099999999997714
7.4,2.29254,-0.010400000000001464,0.033999999999955934
7.5,2.29105,-0.014899999999999967,
7.6,2.29,-0.010499999999997772,4.440892098500642E-14
7.7,2.28862,-0.013800000000001516,
7.8,2.28703,-0.015899999999997638,
7.9,2.28658,-0.004500000000002811,0.103999999999971
8,2.28503,-0.015499999999999459,
8.1,2.28359,-0.014400000000001129,0.014999999999965147
8.2,2.2834,-0.0018999999999991313,0.13600000000000376
8.3,2.28186,-0.01539999999999853,
8.4,2.28104,-0.008200000000000459,0.062000000000006925
8.5,2.27983,-0.012099999999999377,
8.6,2.27769,-0.021399999999998164,
8.7,2.27734,-0.0035000000000007373,0.11899999999997835
8.8,2.27587,-0.014700000000002836,
8.9,2.27556,-0.003099999999998115,0.18300000000000113
9,2.27312,-0.024400000000000064,
9.1,2.27253,-0.005899999999998705,0.08800000000004163
9.2,2.27202,-0.005100000000002343,0.1929999999999779
9.3,2.27094,-0.010799999999999546,
9.4,2.26949,-0.014500000000001786,
9.5,2.26861,-0.00879999999999995,-0.029000000000012557
9.6,2.26709,-0.015199999999997492,
9.7,2.26663,-0.004599999999999066,0.09900000000002754
9.8,2.26547,-0.011600000000000334,
9.9,2.26442,-0.010500000000002212,0.04699999999995296
10,2.26332,-0.010999999999996608,
10.1,2.26212,-0.012000000000003163,
10.2,2.2618,-0.0031999999999987707,0.08400000000001592
10.3,2.26143,-0.0037000000000019825,
10.4,2.26025,-0.01179999999999741,
10.5,2.25824,-0.020100000000002966,
10.6,2.25703,-0.012099999999999377,-0.0009999999999621458
10.7,2.25613,-0.00899999999999682,0.11100000000006185
10.8,2.25583,-0.0030000000000018475,0.090999999999974
10.9,2.25407,-0.0175999999999999,
11,2.25364,-0.0043000000000015404,0.04699999999995296
11.1,2.25322,-0.0042000000000008844,0.13399999999999065
11.2,2.25196,-0.012599999999998213,
11.3,2.25048,-0.014799999999999048,
11.4,2.24967,-0.008099999999999804,-0.03799999999998276
11.5,2.2493,-0.003700000000002048,0.1109999999999704
11.6,2.24831,-0.009899999999998278,
11.7,2.24833,0.00020000000000131095,
11.8,2.24607,-0.022600000000001185,
11.9,2.24536,-0.00710000000000213,0.009999999999976772
12,2.244,-0.013599999999995886,
12.1,2.24343,-0.005700000000001835,0.1689999999999941
12.2,2.24274,-0.006900000000000819,
12.3,2.2417,-0.010400000000001372,
12.4,2.24054,-0.0115999999999961,
12.5,2.24,-0.0053999999999998684,0.08199999999996047
12.6,2.23906,-0.009400000000003883,
12.7,2.23818,-0.00879999999999995,0.027999999999961594
12.8,2.23758,-0.005999999999999254,0.0340000000000458
12.9,2.23687,-0.007099999999997689,
13,2.23481,-0.0206000000000018,
13.1,2.23507,0.0025999999999992787,
13.2,2.23349,-0.015799999999996983,
13.3,2.23299,-0.005000000000001599,0.03799999999998298
13.4,2.23194,-0.010500000000002212,
13.5,2.23125,-0.006899999999996378,0.08900000000000637
13.6,2.22974,-0.015100000000001277,
13.7,2.22956,-0.0017999999999984758,0.08700000000003767
13.8,2.22877,-0.007900000000002792,
13.9,2.22784,-0.009299999999998787,
14,2.22688,-0.009600000000000754,
14.1,2.22591,-0.009700000000001409,
14.2,2.22512,-0.007899999999998492,0.07200000000002811
14.3,2.22364,-0.014799999999999048,
14.4,2.22175,-0.01889999999999954,
14.5,2.22296,0.012099999999999377,
14.6,2.22143,-0.015300000000002588,
14.7,2.21992,-0.015099999999996836,-0.053999999999954466
14.8,2.21963,-0.0029000000000011937,0.12400000000001218
14.9,2.21876,-0.008699999999999295,
15,2.21714,-0.016199999999999607,
15.1,2.21706,-0.0008000000000008029,0.14299999999996083
15.2,2.21625,-0.008099999999999804,
15.3,2.21477,-0.014799999999999048,
15.4,2.21406,-0.00710000000000213,0.0909999999999751
15.5,2.2137,-0.0036000000000013925,0.11199999999997697
15.6,2.21303,-0.0066999999999995076,
15.7,2.21124,-0.017899999999997425,
15.8,2.21133,0.0008999999999970015,
15.9,2.21009,-0.012399999999996901,
16,2.20914,-0.009500000000000097,-0.023999999999979756
16.1,2.20794,-0.01200000000000295,
16.2,2.20769,-0.002499999999998668,0.09899999999998445
16.3,2.20611,-0.015800000000001143,
16.4,2.20574,-0.003699999999997673,0.08300000000005452
16.5,2.20576,0.0002000000000013074,
16.6,2.20411,-0.016500000000001278,
16.7,2.20331,-0.007999999999999289,0.0780000000000202
16.8,2.20381,0.004999999999997158,
16.9,2.20169,-0.021199999999997228,
17,2.2009,-0.007900000000002792,0.08599999999998363
17.1,2.20126,0.0036000000000013287,
17.2,2.19935,-0.01910000000000119,
17.3,2.19851,-0.008399999999997179,0.12799999999999867
17.4,2.19817,-0.003400000000000142,0.15700000000001382
17.5,2.19725,-0.00920000000000241,
17.6,2.19621,-0.01039999999999693,
17.7,2.19429,-0.019200000000001848,
17.8,2.19327,-0.010200000000000063,-0.018000000000028587
17.9,2.19295,-0.0031999999999988275,0.1600000000000336
18,2.19204,-0.009100000000001754,
18.1,2.19149,-0.005500000000000426,0.0469999999999957
18.2,2.1896,-0.018899999999999875,
18.3,2.18952,-0.0008000000000007887,0.08300000000000848
18.4,2.18865,-0.00869999999999945,
18.5,2.1876,-0.010499999999997584,
18.6,2.18701,-0.005900000000003041,0.12999999999996648
18.7,2.18588,-0.011299999999998775,
18.8,2.18475,-0.011299999999998372,-0.008000000000007765
18.9,2.18453,-0.002200000000001137,0.09099999999997832
19,2.18248,-0.02050000000000078,
19.1,2.18242,-0.0005999999999994813,0.10699999999998738
19.2,2.18116,-0.012599999999998437,
19.3,2.18017,-0.009900000000002544,0.10599999999998087
19.4,2.17933,-0.008399999999997477,0.042000000000010494
19.5,2.1783,-0.010300000000000718,
19.6,2.17695,-0.01349999999999943,
19.7,2.17669,-0.002600000000003766,0.07299999999998934
19.8,2.17525,-0.014399999999996433,
19.9,2.17464,-0.006100000000000124,0.07399999999999464
20,2.17357,-0.010700000000003332,
20.1,2.17293,-0.006399999999997428,0.07999999999998891
20.2,2.17128,-0.016500000000001864,
20.3,2.17123,-0.0004999999999988276,0.1020000000000436
20.4,2.16949,-0.0173999999999989,
20.5,2.16789,-0.01600000000000245,0.00499999999999407
20.6,2.16723,-0.006599999999998735,0.1080000000000001
20.7,2.16592,-0.013100000000001723,
20.8,2.16483,-0.0109000000000002,0.05100000000002178
20.9,2.16369,-0.011399999999999431,
21,2.16309,-0.005999999999999254,0.07100000000002368
21.1,2.16193,-0.011600000000000334,
21.2,2.16054,-0.0138999999999981,
21.3,2.15882,-0.017200000000001416,
21.4,2.15695,-0.01869999999999856,
21.5,2.15574,-0.012099999999999162,-0.006999999999997204
21.6,2.15358,-0.021600000000003533,
21.7,2.15327,-0.00309999999999817,0.15600000000000724
21.8,2.15092,-0.02349999999999819,
21.9,2.14962,-0.013000000000001066,0.0860000000000265
22,2.14714,-0.024800000000002244,
22.1,2.14243,-0.04709999999999703,
22.2,2.13626,-0.061700000000001406,
22.3,2.13217,-0.04090000000000091,-0.17400000000002472
22.4,2.12816,-0.040100000000001544,0.21600000000000322
22.5,2.12165,-0.06509999999999923,
22.6,2.11515,-0.06499999999999857,-0.24099999999997324
22.7,2.11132,-0.0382999999999986,0.268000000000012
22.8,2.10852,-0.028000000000000958,0.3699999999999709
22.9,2.10597,-0.025499999999998847,0.12800000000000025
23,2.10215,-0.038200000000001025,
23.1,2.0996,-0.02549999999999794,0.025000000000029818
23.2,2.09742,-0.021800000000001173,0.164000000000002
23.3,2.09536,-0.020600000000001437,0.04899999999996435
23.4,2.09284,-0.025200000000001315,
23.5,2.09212,-0.0071999999999982165,0.1460000000000275
23.6,2.08961,-0.025099999999999765,
23.7,2.08746,-0.0214999999999992,0.03700000000002194
23.8,2.08557,-0.018899999999999206,0.06200000000000471
23.9,2.08453,-0.010400000000001741,0.11099999999997695
24,2.08285,-0.0167999999999988,
24.1,2.08153,-0.013200000000001912,0.05699999999997213
24.2,2.08068,-0.008499999999998134,0.08300000000000841
24.3,2.07884,-0.018400000000000378,
24.4,2.0773,-0.015399999999999076,-0.02199999999997211
24.5,2.0769,-0.003999999999999502,0.1440000000000067
24.6,2.07479,-0.021100000000000264,
24.7,2.07465,-0.0014000000000003198,0.13999999999999055
24.8,2.07287,-0.017800000000000895,
24.9,2.07272,-0.001500000000000977,0.19599999999999707
25,2.07175,-0.009699999999996796,
25.1,2.07047,-0.012800000000003737,
25.2,2.06876,-0.017099999999996927,
25.3,2.06855,-0.002100000000000405,0.1570000000000027
25.4,2.06669,-0.018600000000002344,
25.5,2.06612,-0.005699999999997293,0.1139999999999947
25.6,2.06507,-0.010500000000002025,
25.7,2.06381,-0.012599999999998437,
25.8,2.06351,-0.0030000000000018475,0.15600000000000275
25.9,2.06141,-0.021000000000000355,
26,2.06135,-0.0005999999999994813,0.11999999999998785
26.1,2.05979,-0.015599999999999836,
26.2,2.0591,-0.006900000000000942,0.14099999999999713
26.3,2.05737,-0.017299999999997626,
26.4,2.05599,-0.013800000000001884,0.01799999999997991
26.5,2.05604,0.0004999999999988276,
26.6,2.05537,-0.006699999999999389,
26.7,2.05341,-0.019600000000000034,
26.8,2.05364,0.0023000000000017126,
26.9,2.05322,-0.004200000000000959,
27,2.05133,-0.018899999999999206,
27.1,2.05042,-0.009100000000001754,0.08199999999995755
27.2,2.04995,-0.004699999999999805,0.14199999999999705
27.3,2.04968,-0.0026999999999998865,0.06400000000001776
27.4,2.0478,-0.01879999999999922,
27.5,2.04701,-0.007899999999998351,-0.031999999999985006
27.6,2.04653,-0.004800000000000291,0.1399999999999873
27.7,2.04581,-0.007200000000002913,
27.8,2.04511,-0.006999999999996909,0.009000000000014293
27.9,2.04456,-0.005500000000000622,0.017000000000023278
28,2.04301,-0.015499999999999183,
28.1,2.04305,0.0003999999999981739,
28.2,2.04211,-0.00939999999999961,
28.3,2.04148,-0.006300000000001215,0.006999999999956837
28.4,2.04087,-0.006100000000000124,0.03299999999999556
28.5,2.03981,-0.010599999999998238,
28.6,2.03973,-0.0008000000000007887,0.055000000000003484
28.7,2.03792,-0.018099999999999058,
28.8,2.03772,-0.001999999999999751,0.08599999999998365
28.9,2.03689,-0.008300000000001261,
29,2.0365,-0.003899999999998849,0.14200000000000007
29.1,2.03594,-0.00560000000000108,
29.2,2.03548,-0.004599999999999147,0.037000000000021925
29.3,2.0342,-0.012800000000003737,
29.4,2.03423,0.00030000000000197176,
29.5,2.03283,-0.013999999999998259,
29.6,2.03215,-0.006800000000000043,-0.011999999999989462
29.7,2.03143,-0.007200000000002913,
29.8,2.03121,-0.002199999999996618,0.11800000000001473
29.9,2.03055,-0.00660000000000341,
30,2.02983,-0.0071999999999982165,
30.1,2.02945,-0.003799999999998195,0.0340000000000467
30.2,2.02843,-0.010200000000000426,
30.3,2.02828,-0.0015000000000009238,0.056999999999972115
30.4,2.02708,-0.011999999999998933,
30.5,2.02742,0.0034000000000000215,
30.6,2.027,-0.00420000000000081,
30.7,2.02607,-0.009300000000003392,
30.8,2.02546,-0.006099999999999908,0.0410000000000046
30.9,2.02531,-0.001499999999996536,0.07800000000007022
31,2.02504,-0.0026999999999998865,
31.1,2.02423,-0.00809999999999966,
31.2,2.0232,-0.010300000000001084,
31.3,2.02296,-0.002400000000002366,0.03699999999997489
31.4,2.02242,-0.005399999999999965,
31.5,2.02086,-0.015599999999999836,
31.6,2.02074,-0.0011999999999989625,0.09100000000001993
31.7,2.02,-0.007399999999999787,
31.8,2.01909,-0.009100000000001754,
31.9,2.01961,0.005200000000003091,
32,2.01865,-0.009600000000000582,
32.1,2.01821,-0.0044000000000021175,0.11199999999997559
32.2,2.01783,-0.003799999999998195,0.05800000000002304
32.3,2.0179,0.0007000000000001847,
32.4,2.01662,-0.012799999999999296,
32.5,2.01629,-0.0032999999999993677,0.011000000000027342
32.6,2.0158,-0.004900000000000945,
32.7,2.01583,0.0002999999999975202,
32.8,2.01435,-0.0148000000000001,
32.9,2.01443,0.0008000000000007887,
33,2.01383,-0.005999999999999254,
33.1,2.01229,-0.01539999999999853,
33.2,2.0129,0.006099999999999908,
33.3,2.0124,-0.005000000000001954,0.07799999999997785
33.4,2.01118,-0.012199999999999815,
33.5,2.01062,-0.00560000000000108,-0.11700000000000821
33.6,2.0108,0.0018000000000028848,
33.7,2.01028,-0.005200000000002906,
33.8,2.00954,-0.00740000000000005,
33.9,2.0092,-0.0034000000000000215,0.08799999999999669
34,2.00875,-0.00449999999999833,
34.1,2.00746,-0.01289999999999995,
34.2,2.00772,0.0025999999999992327,
34.3,2.00766,-0.000599999999999524,0.06800000000000912
34.4,2.00734,-0.003199999999998714,
34.5,2.0069,-0.0044000000000021175,
34.6,2.00558,-0.01319999999999747,
34.7,2.00629,0.007099999999997563,
34.8,2.00527,-0.010200000000000788,
34.9,2.00424,-0.010300000000000718,
35,2.00439,0.0015000000000009238,
35.1,2.00362,-0.007699999999997044,
35.2,2.00258,-0.010400000000001372,
35.3,2.00313,0.005500000000000817,
35.4,2.00308,-0.0004999999999988276,-0.03099999999998016
35.5,2.00225,-0.008300000000000966,
35.6,2.00169,-0.00560000000000108,-0.11100000000001739
35.7,2.00015,-0.01539999999999853,
35.8,2.00118,0.01030000000000145,
35.9,1.99996,-0.012200000000002036,
36,2.00004,0.0007999999999985682,
36.1,1.99951,-0.005299999999999119,
36.2,1.9991,-0.004099999999997936,0.04200000000002971
36.3,1.99829,-0.008100000000002454,
36.4,1.99795,-0.0034000000000000215,0.0189999999999907
36.5,1.9979,-0.0004999999999988276,0.07600000000003518
36.6,1.99746,-0.004399999999999897,
36.7,1.99604,-0.014199999999999567,
36.8,1.99636,0.003199999999998941,
36.9,1.99615,-0.0020999999999981845,0.013000000000018186
37,1.99549,-0.006600000000000956,
37.1,1.99467,-0.008200000000000313,
37.2,1.9947,0.00029999999999974063,
37.3,1.99427,-0.004299999999999549,
37.4,1.99396,-0.0031000000000002805,-0.06299999999999131
37.5,1.99317,-0.007899999999998351,
37.6,1.99285,-0.0032000000000009343,0.01099999999998599
37.7,1.99258,-0.0026999999999998865,0.051999999999983906
37.8,1.99228,-0.00299999999999984,
37.9,1.99199,-0.0029000000000011937,0.0029999999999973633
38,1.99165,-0.0034000000000000215,
38.1,1.99094,-0.007099999999999784,
38.2,1.99105,0.0011000000000005294,
38.3,1.99,-0.01050000000000055,
38.4,1.98989,-0.0011000000000005294,0.018999999999992835
38.5,1.98917,-0.0071999999999982165,
38.6,1.98859,-0.005800000000000167,0.047000000000003164
38.7,1.98835,-0.0024000000000001455,0.04799999999998003
38.8,1.98795,-0.003999999999999787,
38.9,1.98845,0.004999999999999378,
39,1.98781,-0.006399999999999648,
39.1,1.9879,0.000899999999999222,
39.2,1.9866,-0.013000000000000605,
39.3,1.98665,0.0005000000000010836,
39.4,1.98639,-0.0025999999999992327,
39.5,1.98541,-0.00980000000000189,
39.6,1.98584,0.004300000000001464,
39.7,1.98444,-0.014000000000000479,
39.8,1.984,-0.004400000000000209,0.014000000000000373
39.9,1.98383,-0.0017000000000000107,0.12300000000000294
40,1.98413,0.002999999999999627,
40.1,1.98339,-0.007399999999999524,
40.2,1.98371,0.0032000000000009343,
40.3,1.98216,-0.015500000000002505,
40.4,1.98192,-0.0024000000000001455,0.020000000000000354
40.5,1.98103,-0.008899999999998227,
40.6,1.98169,0.006599999999998735,
40.7,1.98116,-0.005299999999999119,0.10200000000003243
40.8,1.98112,-0.00040000000000042275,-0.06999999999999555
40.9,1.98004,-0.010799999999999546,
41,1.97968,-0.0035999999999991083,0.016999999999999862
41.1,1.97979,0.001099999999998309,
41.2,1.97958,-0.002100000000000405,
41.3,1.97962,0.00040000000000042275,
41.4,1.97814,-0.014799999999999048,
41.5,1.97904,0.00899999999999888,
41.6,1.97829,-0.007499999999997957,0.03300000000001542
41.7,1.97757,-0.007200000000000437,-0.1619999999999909
41.8,1.97652,-0.01050000000000055,
41.9,1.97632,-0.001999999999999751,0.05499999999998128
42,1.97584,-0.004800000000000291,
42.1,1.97593,0.000899999999999222,
42.2,1.97525,-0.006800000000000043,
42.3,1.97494,-0.003100000000000501,0.0740000000000047
42.4,1.97488,-0.0005999999999994813,0.06200000000000474
42.5,1.97477,-0.0011000000000005294,
42.6,1.97376,-0.01009999999999941,
42.7,1.97339,-0.003699999999999762,-0.005999999999992528
42.8,1.97311,-0.002800000000000739,0.07299999999999085
42.9,1.97334,0.0023000000000017126,
43,1.97251,-0.008300000000000966,
43.1,1.9716,-0.009099999999999534,
43.2,1.97182,0.0021999999999988383,
43.3,1.97164,-0.0017999999999985718,0.019000000000012982
43.4,1.97074,-0.009000000000001101,
43.5,1.97163,0.008900000000000447,
43.6,1.97039,-0.012399999999998901,
43.7,1.96965,-0.007400000000001745,-0.09600000000000447
43.8,1.96964,-9.999999999844035E-05,0.12300000000001161
43.9,1.96945,-0.001900000000001318,
44,1.96881,-0.006399999999999648,
44.1,1.96818,-0.006299999999998995,0.011000000000027342
44.2,1.96894,0.0075999999999986105,
44.3,1.96807,-0.008699999999999758,
44.4,1.9683,0.002299999999999492,
44.5,1.96784,-0.004599999999998984,
44.6,1.96695,-0.008900000000000447,
44.7,1.96707,0.001200000000001183,
44.8,1.96667,-0.004000000000002007,
44.9,1.96596,-0.007099999999999784,
45,1.96652,0.00560000000000108,
45.1,1.9661,-0.00420000000000081,0.02199999999998807
45.2,1.96549,-0.006099999999999908,
45.3,1.96472,-0.007699999999999812,
45.4,1.96466,-0.0005999999999994813,-0.06200000000000473
45.5,1.9644,-0.002600000000001453,
45.6,1.96426,-0.00140000000000027,0.06299999999999452
45.7,1.96413,-0.0012999999999996163,0.013000000000018183
45.8,1.96389,-0.0024000000000003164,
45.9,1.96293,-0.009599999999998362,
46,1.96307,0.00140000000000027,
46.1,1.9629,-0.0017000000000000107,
46.2,1.96196,-0.009400000000001496,
46.3,1.96185,-0.001099999999998387,0.003000000000019
