Time,Stress,Derivative,RateInDegrees,SecondDerivative
0,1.6548,,,
2,1.60795,-0.02342500000000003,-1.3419082222871928,
4,1.58902,-0.009464999999999946,-0.5422883596225019,0.006980000000000042
6,1.57628,-0.006370000000000098,-0.364969179112459,0.001547499999999924
8,1.56669,-0.004794999999999994,-0.2747311572362603,0.000787500000000052
10,1.55878,-0.003954999999999931,-0.22660362646596816,0.00042000000000003146
12,1.55209,-0.0033450000000000424,-0.1916536676675026,0.0003049999999999442
14,1.5464,-0.0028449999999999864,-0.1630060529239785,0.000250000000000028
16,1.54136,-0.0025199999999999667,-0.14438505873919077,0.00016250000000000986
18,1.53687,-0.0022450000000000525,-0.1286288089096924,0.0001374999999999571
20,1.53285,-0.0020099999999999563,-0.11516436172961411,0.00011750000000004812
22,1.5291,-0.001875000000000071,-0.10742946069325221,6.74999999999426E-05
24,1.52562,-0.0017399999999999638,-0.09969455574109674,6.750000000005363E-05
26,1.52251,-0.001554999999999973,-0.08909486533168386,9.249999999999536E-05
28,1.51959,-0.0014600000000000168,-0.08365177865175782,4.7499999999978115E-05
30,1.51673,-0.0014300000000000423,-0.08193290885553883,1.4999999999987246E-05
32,1.51409,-0.0013199999999999878,-0.07563038503116075,5.500000000002725E-05
34,1.51163,-0.0012299999999999534,-0.07047377326117907,4.500000000001725E-05
36,1.50925,-0.0011900000000000244,-0.06818194543643054,1.999999999996449E-05
38,1.507,-0.0011250000000000426,-0.0644577247591266,3.249999999999087E-05
40,1.50489,-0.0010549999999999171,-0.06044702495995377,3.500000000006276E-05
42,1.50286,-0.0010149999999999881,-0.05815519623480435,1.999999999996449E-05
44,1.50094,-0.0009600000000000719,-0.05500393143535957,2.7499999999958114E-05
46,1.49905,-0.0009449999999999736,-0.05414449552240242,7.500000000049134E-06
48,1.49736,-0.0008449999999999847,-0.04841492216540094,4.999999999999449E-05
50,1.49568,-0.0008400000000000629,-0.04812844347118498,2.499999999960867E-06
52,1.49411,-0.0007849999999999246,-0.04497717767907972,2.7500000000069136E-05
54,1.4926,-0.0007550000000000612,-0.04325830531294341,1.4999999999931735E-05
56,1.49115,-0.0007249999999999757,-0.04153943286892951,1.5000000000042757E-05
58,1.48972,-0.0007150000000000212,-0.04096647537082723,4.999999999977245E-06
60,1.48832,-0.0006999999999999229,-0.040107039108337676,7.500000000049134E-06
62,1.48696,-0.0006800000000000139,-0.038961124063689595,9.99999999995449E-06
64,1.48572,-0.0006200000000000649,-0.0355233787463863,2.999999999997449E-05
66,1.48442,-0.0006499999999999284,-0.03724225143854958,-1.4999999999931735E-05
68,1.48325,-0.0005850000000000577,-0.03351802719158786,3.249999999993536E-05
70,1.48206,-0.0005950000000000122,-0.034090984787264765,-4.999999999977245E-06
72,1.48093,-0.0005649999999999267,-0.03237211198022512,1.5000000000042757E-05
74,1.47981,-0.0005600000000000049,-0.032085633173308474,2.499999999960867E-06
76,1.47872,-0.0005450000000000177,-0.031226196742977427,7.499999999993623E-06
78,1.47777,-0.0004750000000000032,-0.027215493221882527,3.500000000000725E-05
80,1.47678,-0.0004950000000000232,-0.02836140854255919,-1.0000000000010001E-05
82,1.47587,-0.0004549999999999832,-0.026069577879433474,2.0000000000020002E-05
84,1.47488,-0.0004950000000000232,-0.02836140854255919,-2.0000000000020002E-05
86,1.47399,-0.0004450000000000287,-0.025496620200333962,2.4999999999997247E-05
88,1.47305,-0.00046999999999997044,-0.02692901438827402,-1.2499999999970868E-05
90,1.47229,-0.00037999999999993594,-0.021772395166989696,4.500000000001725E-05
92,1.47134,-0.0004750000000000032,-0.027215493221882527,-4.7500000000033626E-05
94,1.47062,-0.00036000000000002697,-0.020626479733647285,5.7499999999988116E-05
96,1.46981,-0.0004049999999999887,-0.023204789434075886,-2.249999999998087E-05
98,1.46902,-0.0003950000000000342,-0.02263183173062568,4.999999999977245E-06
99.999,1.46821,-0.00040520260130064,-0.02321639763162208,-5.103852576591197E-06
100.09899999999999,1.46816950473987,-0.0004049526013006439,-0.023202073689094417,
100.19899999999998,1.46812903447974,-0.00040470260130064784,-0.023187749746563856,
100.29899999999998,1.4680885892196098,-0.00040445260130065176,-0.0231734258040304,
100.39899999999997,1.4680481689594798,-0.0004042026013006557,-0.023159101861494044,
100.49899999999997,1.4680077736993498,-0.0004039526013006596,-0.023144777918954793,
100.59899999999996,1.4679674034392196,-0.00040370260130066354,-0.02313045397641265,
100.69899999999996,1.4679270581790895,-0.00040345260130066746,-0.023116130033867612,
100.79899999999995,1.4678867379189595,-0.0004032026013006714,-0.02310180609131969,
100.89899999999994,1.4678464426588294,-0.0004029526013006753,-0.023087482148768875,
100.99899999999994,1.4678061723986993,-0.00040270260130067923,-0.023073158206215177,
101.09899999999993,1.4677659271385692,-0.00040245260130068316,-0.023058834263658595,
101.19899999999993,1.467725706878439,-0.0004022026013006871,-0.02304451032109913,
101.29899999999992,1.467685511618309,-0.000401952601300691,-0.023030186378536783,
101.39899999999992,1.467645341358179,-0.00040170260130069493,-0.02301586243597156,
101.49899999999991,1.467605196098049,-0.00040145260130069885,-0.02300153849340346,
101.5989999999999,1.4675650758379188,-0.0004012026013007028,-0.02298721455083248,
101.6989999999999,1.4675249805777888,-0.0004009526013007067,-0.022972890608258634,
101.7989999999999,1.4674849103176588,-0.0004007026013007106,-0.02295856666568191,
101.89899999999989,1.4674448650575287,-0.00040045260130071455,-0.022944242723102318,
101.99899999999988,1.4674048447973986,-0.0004002026013007185,-0.02292991878051986,
102.09899999999988,1.4673648495372686,-0.0003999526013007224,-0.022915594837934535,
102.19899999999987,1.4673248792771385,-0.0003997026013007263,-0.022901270895346344,
102.29899999999986,1.4672849340170084,-0.00039945260130073025,-0.022886946952755293,
102.39899999999986,1.4672450137568784,-0.00039920260130073417,-0.022872623010161377,
102.49899999999985,1.4672051184967483,-0.0003989526013007381,-0.02285829906756461,
102.59899999999985,1.4671652482366182,-0.000398702601300742,-0.022843975124964975,
102.69899999999984,1.4671254029764882,-0.00039845260130074594,-0.022829651182362493,
102.79899999999984,1.467085582716358,-0.00039820260130074987,-0.02281532723975715,
102.89899999999983,1.467045787456228,-0.0003979526013007538,-0.02280100329714896,
102.99899999999982,1.467006017196098,-0.0003977026013007577,-0.02278667935453792,
103.09899999999982,1.4669662719359677,-0.00039745260130076164,-0.02277235541192403,
103.19899999999981,1.4669265516758376,-0.00039720260130076556,-0.022758031469307296,
103.29899999999981,1.4668868564157076,-0.0003969526013007695,-0.022743707526687713,
103.3989999999998,1.4668471861555774,-0.0003967026013007734,-0.022729383584065288,
103.4989999999998,1.4668075408954473,-0.00039645260130077734,-0.022715059641440025,
103.59899999999979,1.4667679206353172,-0.00039620260130078126,-0.02270073569881192,
103.69899999999978,1.4667283253751873,-0.0003959526013007852,-0.02268641175618098,
103.79899999999978,1.4666887551150571,-0.0003957026013007891,-0.022672087813547202,
103.89899999999977,1.466649209854927,-0.00039545260130079303,-0.02265776387091059,
103.99899999999977,1.466609689594797,-0.00039520260130079696,-0.022643439928271145,
104.09899999999976,1.466570194334667,-0.0003949526013008009,-0.022629115985628872,
104.19899999999976,1.4665307240745369,-0.0003947026013008048,-0.022614792042983767,
104.29899999999975,1.4664912788144069,-0.00039445260130080873,-0.02260046810033584,
104.39899999999975,1.4664518585542767,-0.00039420260130081265,-0.022586144157685083,
104.49899999999974,1.4664124632941467,-0.0003939526013008166,-0.022571820215031506,
104.59899999999973,1.4663730930340166,-0.0003937026013008205,-0.022557496272375105,
104.69899999999973,1.4663337477738865,-0.0003934526013008244,-0.022543172329715887,
104.79899999999972,1.4662944275137564,-0.00039320260130082835,-0.02252884838705385,
104.89899999999972,1.4662551322536264,-0.0003929526013008323,-0.022514524444388995,
104.99899999999971,1.4662158619934962,-0.0003927026013008362,-0.02250020050172133,
105.0989999999997,1.466176616733366,-0.0003924526013008401,-0.02248587655905085,
105.1989999999997,1.466137396473236,-0.00039220260130084405,-0.022471552616377555,
105.2989999999997,1.4660982012131059,-0.00039195260130084797,-0.02245722867370146,
105.39899999999969,1.4660590309529757,-0.0003917026013008519,-0.02244290473102255,
105.49899999999968,1.4660198856928457,-0.0003914526013008558,-0.02242858078834084,
105.59899999999968,1.4659807654327157,-0.00039120260130085974,-0.022414256845656323,
105.69899999999967,1.4659416701725856,-0.00039095260130086367,-0.022399932902969006,
105.79899999999967,1.4659025999124555,-0.0003907026013008676,-0.02238560896027889,
105.89899999999966,1.4658635546523255,-0.0003904526013008715,-0.022371285017585972,
105.99899999999965,1.4658245343921954,-0.00039020260130087544,-0.02235696107489026,
106.09899999999965,1.4657855391320653,-0.00038995260130087936,-0.022342637132191753,
106.19899999999964,1.4657465688719353,-0.0003897026013008833,-0.022328313189490454,
106.29899999999964,1.4657076236118052,-0.0003894526013008872,-0.022313989246786365,
106.39899999999963,1.465668703351675,-0.00038920260130089114,-0.02229966530407948,
106.49899999999963,1.465629808091545,-0.00038895260130089506,-0.022285341361369816,
106.59899999999962,1.465590937831415,-0.000388702601300899,-0.022271017418657363,
106.69899999999961,1.4655520925712848,-0.0003884526013009029,-0.022256693475942124,
106.79899999999961,1.4655132723111548,-0.00038820260130090683,-0.022242369533224105,
106.8989999999996,1.4654744770510246,-0.00038795260130091076,-0.022228045590503308,
106.9989999999996,1.4654357067908945,-0.0003877026013009147,-0.022213721647779728,
107.09899999999959,1.4653969615307645,-0.0003874526013009186,-0.022199397705053376,
107.19899999999959,1.4653582412706343,-0.00038720260130092253,-0.022185073762324245,
107.29899999999958,1.4653195460105042,-0.00038695260130092645,-0.02217074981959234,
107.39899999999957,1.4652808757503741,-0.0003867026013009304,-0.022156425876857667,
107.49899999999957,1.465242230490244,-0.0003864526013009343,-0.022142101934120223,
107.59899999999956,1.4652036102301138,-0.0003862026013009382,-0.022127777991380014,
107.69899999999956,1.4651650149699837,-0.00038595260130094215,-0.022113454048637037,
107.79899999999955,1.4651264447098538,-0.0003857026013009461,-0.022099130105891294,
107.89899999999955,1.4650878994497236,-0.00038545260130095,-0.022084806163142793,
107.99899999999954,1.4650493791895935,-0.0003852026013009539,-0.022070482220391523,
108.09899999999953,1.4650108839294635,-0.00038495260130095785,-0.022056158277637503,
108.19899999999953,1.4649724136693334,-0.00038470260130096177,-0.02204183433488072,
108.29899999999952,1.4649339684092033,-0.0003844526013009657,-0.022027510392121186,
108.39899999999952,1.4648955481490733,-0.0003842026013009696,-0.022013186449358898,
108.49899999999951,1.4648571528889431,-0.00038395260130097354,-0.021998862506593855,
108.5989999999995,1.464818782628813,-0.00038370260130097747,-0.021984538563826064,
108.6989999999995,1.464780437368683,-0.0003834526013009814,-0.021970214621055528,
108.7989999999995,1.4647421171085528,-0.0003832026013009853,-0.02195589067828224,
108.89899999999949,1.4647038218484227,-0.00038295260130098924,-0.021941566735506214,
108.99899999999948,1.4646655515882927,-0.00038270260130099316,-0.021927242792727442,
109.09899999999948,1.4646273063281625,-0.0003824526013009971,-0.02191291884994593,
109.19899999999947,1.4645890860680324,-0.000382202601301001,-0.021898594907161676,
109.29899999999947,1.4645508908079024,-0.00038195260130100494,-0.02188427096437469,
109.39899999999946,1.4645127205477722,-0.00038170260130100886,-0.021869947021584964,
109.49899999999946,1.464474575287642,-0.0003814526013010128,-0.021855623078792505,
109.59899999999945,1.464436455027512,-0.0003812026013010167,-0.021841299135997312,
109.69899999999944,1.4643983597673818,-0.00038095260130102063,-0.021826975193199392,
109.79899999999944,1.4643602895072516,-0.00038070260130102456,-0.021812651250398742,
109.89899999999943,1.4643222442471215,-0.0003804526013010285,-0.02179832730759537,
109.99899999999943,1.4642842239869915,-0.0003802026013010324,-0.021784003364789268,
110.09899999999942,1.4642462287268614,-0.00037995260130103633,-0.021769679421980444,
110.19899999999942,1.4642082584667313,-0.00037970260130104025,-0.0217553554791689,
110.29899999999941,1.4641703132066013,-0.0003794526013010442,-0.021741031536354635,
110.3989999999994,1.4641323929464711,-0.0003792026013010481,-0.021726707593537654,
110.4989999999994,1.464094497686341,-0.000378952601301052,-0.021712383650717957,
110.59899999999939,1.464056627426211,-0.00037870260130105595,-0.021698059707895546,
110.69899999999939,1.4640187821660808,-0.0003784526013010599,-0.02168373576507042,
110.79899999999938,1.4639809619059507,-0.0003782026013010638,-0.021669411822242586,
110.89899999999938,1.4639431666458207,-0.0003779526013010677,-0.021655087879412047,
110.99899999999937,1.4639053963856905,-0.00037770260130107165,-0.021640763936578794,
111.09899999999936,1.4638676511255604,-0.00037745260130107557,-0.02162643999374284,
111.19899999999936,1.4638299308654303,-0.0003772026013010795,-0.02161211605090418,
111.29899999999935,1.4637922356053001,-0.0003769526013010834,-0.02159779210806282,
111.39899999999935,1.46375456534517,-0.00037670260130108734,-0.02158346816521876,
111.49899999999934,1.46371692008504,-0.00037645260130109127,-0.021569144222372005,
111.59899999999934,1.4636792998249097,-0.0003762026013010952,-0.02155482027952255,
111.69899999999933,1.4636417045647796,-0.0003759526013010991,-0.021540496336670403,
111.79899999999932,1.4636041343046495,-0.00037570260130110304,-0.02152617239381556,
111.89899999999932,1.4635665890445195,-0.00037545260130110697,-0.02151184845095803,
111.99899999999931,1.4635290687843894,-0.0003752026013011109,-0.02149752450809781,
112.09899999999931,1.4634915735242593,-0.0003749526013011148,-0.0214832005652349,
112.1989999999993,1.4634541032641293,-0.00037470260130111874,-0.021468876622369307,
112.2989999999993,1.4634166580039991,-0.00037445260130112266,-0.021454552679501034,
112.39899999999929,1.463379237743869,-0.0003742026013011266,-0.021440228736630075,
112.49899999999928,1.463341842483739,-0.0003739526013011305,-0.021425904793756435,
112.59899999999928,1.4633044722236088,-0.00037370260130113443,-0.02141158085088012,
112.69899999999927,1.4632671269634787,-0.00037345260130113836,-0.02139725690800113,
112.79899999999927,1.4632298067033487,-0.0003732026013011423,-0.021382932965119457,
112.89899999999926,1.4631925114432185,-0.0003729526013011462,-0.02136860902223512,
112.99899999999926,1.4631552411830884,-0.00037270260130115013,-0.02135428507934811,
113.09899999999925,1.4631179959229583,-0.00037245260130115406,-0.02133996113645843,
113.19899999999924,1.4630807756628281,-0.000372202601301158,-0.021325637193566078,
113.29899999999924,1.463043580402698,-0.0003719526013011619,-0.021311313250671062,
113.39899999999923,1.463006410142568,-0.00037170260130116583,-0.021296989307773385,
113.49899999999923,1.4629692648824377,-0.00037145260130116975,-0.021282665364873048,
113.59899999999922,1.4629321446223076,-0.0003712026013011737,-0.021268341421970045,
113.69899999999922,1.4628950493621775,-0.0003709526013011776,-0.02125401747906439,
113.79899999999921,1.4628579791020473,-0.0003707026013011815,-0.02123969353615607,
113.8989999999992,1.4628209338419171,-0.00037045260130118545,-0.0212253695932451,
113.9989999999992,1.462783913581787,-0.00037020260130118937,-0.021211045650331477,
114.0989999999992,1.462746918321657,-0.0003699526013011933,-0.0211967217074152,
114.19899999999919,1.4627099480615269,-0.0003697026013011972,-0.021182397764496277,
114.29899999999918,1.4626730028013968,-0.00036945260130120115,-0.021168073821574703,
114.39899999999918,1.4626360825412668,-0.00036920260130120507,-0.021153749878650485,
114.49899999999917,1.4625991872811366,-0.000368952601301209,-0.021139425935723623,
114.59899999999917,1.4625623170210065,-0.0003687026013012129,-0.021125101992794118,
114.69899999999916,1.4625254717608764,-0.00036845260130121684,-0.021110778049861972,
114.79899999999915,1.4624886515007463,-0.00036820260130122077,-0.021096454106927186,
114.89899999999915,1.4624518562406161,-0.0003679526013012247,-0.021082130163989767,
114.99899999999914,1.462415085980486,-0.0003677026013012286,-0.021067806221049704,
115.09899999999914,1.4623783407203559,-0.00036745260130123254,-0.021053482278107015,
115.19899999999913,1.4623416204602258,-0.00036720260130123646,-0.021039158335161692,
115.29899999999913,1.4623049252000957,-0.0003669526013012404,-0.021024834392213743,
115.39899999999912,1.4622682549399655,-0.0003667026013012443,-0.02101051044926316,
115.49899999999911,1.4622316096798353,-0.00036645260130124823,-0.020996186506309956,
115.59899999999911,1.4621949894197053,-0.00036620260130125216,-0.020981862563354124,
115.6989999999991,1.462158394159575,-0.0003659526013012561,-0.02096753862039567,
115.7989999999991,1.462121823899445,-0.00036570260130126,-0.020953214677434596,
115.89899999999909,1.4620852786393148,-0.00036545260130126393,-0.020938890734470902,
115.99899999999909,1.4620487583791846,-0.00036520260130126786,-0.02092456679150459,
116.09899999999908,1.4620122631190544,-0.0003649526013012718,-0.020910242848535664,
116.19899999999907,1.4619757928589243,-0.0003647026013012757,-0.020895918905564123,
116.29899999999907,1.4619393475987943,-0.00036445260130127963,-0.02088159496258997,
116.39899999999906,1.4619029273386641,-0.00036420260130128355,-0.020867271019613207,
116.49899999999906,1.461866532078534,-0.0003639526013012875,-0.02085294707663384,
116.59899999999905,1.461830161818404,-0.0003637026013012914,-0.020838623133651858,
116.69899999999905,1.4617938165582738,-0.0003634526013012953,-0.020824299190667278,
116.79899999999904,1.4617574962981437,-0.00036320260130129925,-0.02080997524768009,
116.89899999999903,1.4617212010380136,-0.0003629526013013032,-0.020795651304690303,
116.99899999999903,1.4616849307778834,-0.0003627026013013071,-0.020781327361697917,
117.09899999999902,1.4616486855177533,-0.000362452601301311,-0.020767003418702933,
117.19899999999902,1.4616124652576232,-0.00036220260130131495,-0.020752679475705353,
117.29899999999901,1.461576269997493,-0.00036195260130131887,-0.02073835553270518,
117.398999999999,1.4615400997373629,-0.0003617026013013228,-0.020724031589702412,
117.498999999999,1.4615039544772328,-0.0003614526013013267,-0.020709707646697058,
117.598999999999,1.4614678342171026,-0.00036120260130133064,-0.020695383703689108,
117.69899999999899,1.4614317389569724,-0.00036095260130133457,-0.020681059760678577,
117.79899999999898,1.4613956686968423,-0.0003607026013013385,-0.02066673581766546,
117.89899999999898,1.461359623436712,-0.0003604526013013424,-0.02065241187464976,
117.99899999999897,1.461323603176582,-0.00036020260130134634,-0.020638087931631476,
118.09899999999897,1.4612876079164518,-0.00035995260130135026,-0.020623763988610617,
118.19899999999896,1.4612516376563218,-0.0003597026013013542,-0.020609440045587176,
118.29899999999895,1.4612156923961916,-0.0003594526013013581,-0.020595116102561158,
118.39899999999895,1.4611797721360615,-0.00035920260130136204,-0.020580792159532565,
118.49899999999894,1.4611438768759315,-0.00035895260130136596,-0.020566468216501405,
118.59899999999894,1.4611080066158013,-0.0003587026013013699,-0.02055214427346767,
118.69899999999893,1.4610721613556712,-0.0003584526013013738,-0.020537820330431368,
118.79899999999893,1.4610363410955411,-0.00035820260130137773,-0.020523496387392495,
118.89899999999892,1.461000545835411,-0.00035795260130138166,-0.02050917244435106,
118.99899999999892,1.4609647755752808,-0.0003577026013013856,-0.020494848501307058,
119.09899999999891,1.4609290303151508,-0.0003574526013013895,-0.020480524558260497,
119.1989999999989,1.4608933100550205,-0.00035720260130139343,-0.020466200615211375,
