Time,Stress,Derivative,SecondDerivative
0,4.10703,,
5,3.94168,-0.03307000000000002,
10,3.88926,-0.010483999999999938,-0.0020967999999999876
15,3.85702,-0.0064480000000000535,0.005324399999999994
20,3.83308,-0.0047880000000000145,0.0011391999999999848
25,3.81404,-0.0038079999999999893,0.0005280000000000128
30,3.79858,-0.0030920000000000058,0.00033920000000000174
35,3.78521,-0.002673999999999932,0.00022680000000001145
40,3.77417,-0.0022080000000000767,0.0001767999999999858
45,3.76415,-0.0020039999999999837,0.00013399999999998968
50,3.75562,-0.0017059999999999853,0.00010040000000001827
55,3.74794,-0.0015360000000000263,9.359999999999147E-05
60,3.74127,-0.0013339999999999463,7.44000000000078E-05
65,3.73454,-0.001346000000000025,
70,3.72857,-0.0011940000000000063,6.840000000000401E-05
75,3.72304,-0.0011059999999999625,4.800000000001248E-05
80,3.71801,-0.001006000000000018,3.759999999999766E-05
85,3.71293,-0.0010159999999999948,
90,3.70801,-0.0009840000000000515,2.4399999999982206E-05
95,3.70335,-0.0009319999999999773,1.6800000000003488E-05
100,3.69883,-0.0009039999999999714,1.6000000000016E-05
105,3.69473,-0.0008200000000000429,2.2399999999986884E-05
110,3.69077,-0.0007919999999999483,2.240000000000462E-05
115,3.68692,-0.0007699999999999819,1.0000000000012213E-05
120,3.68369,-0.0006460000000000577,2.9199999999978138E-05
125,3.68073,-0.0005919999999999704,3.5600000000002295E-05
130,3.6775,-0.0006459999999999689,
135,3.67413,-0.0006740000000000634,
140,3.6711,-0.0006059999999999732,8.000000000016891E-06
145,3.66775,-0.0006700000000000372,
150,3.66469,-0.0006120000000000125,1.240000000001019E-05
155,3.6615,-0.0006379999999999164,
160,3.65876,-0.0005480000000000374,2.4399999999999963E-05
165,3.65596,-0.0005600000000000272,
170,3.65328,-0.0005359999999999587,2.039999999999154E-05
175,3.65117,-0.00042200000000001123,2.7600000000003185E-05
180,3.64828,-0.0005779999999999674,
185,3.64603,-0.00045000000000001706,1.719999999998833E-05
190,3.6439,-0.00042600000000003746,3.0399999999985994E-05
195,3.64178,-0.00042400000000002435,5.199999999998543E-06
200,3.63985,-0.00038599999999995306,8.000000000016881E-06
205,3.63818,-0.0003339999999999677,1.8000000000011334E-05
210,3.63579,-0.00047800000000002284,
215,3.63379,-0.00040000000000004474,-2.800000000018337E-06
220,3.63232,-0.00029399999999997207,3.680000000001015E-05
225,3.63045,-0.00037399999999996323,
230,3.62866,-0.0003580000000000361,8.400000000001732E-06
235,3.62694,-0.0003440000000000332,5.999999999986008E-06
240,3.62522,-0.00034399999999994434,2.800000000018348E-06
245,3.62345,-0.00035400000000000985,
250,3.62194,-0.00030200000000002447,8.400000000001744E-06
255,3.62011,-0.0003659999999999997,
260,3.61842,-0.00033799999999999385,3.2000000000032004E-06
265,3.61655,-0.00037399999999996323,
270,3.61555,-0.0002000000000000668,3.319999999998658E-05
275,3.61383,-0.00034399999999994434,
280,3.61324,-0.0001180000000000625,5.119999999998014E-05
285,3.61203,-0.00024199999999998666,
290,3.61119,-0.00016799999999994597,3.5199999999999677E-05
295,3.61021,-0.0001960000000000406,
300,3.6084,-0.00036199999999997345,
305,3.60705,-0.00026999999999999247,-5.600000000001161E-06
310,3.60539,-0.00033200000000004336,
315,3.60412,-0.00025399999999997647,2.1599999999999397E-05
320,3.60221,-0.0003820000000000157,
320.1,3.602171828,-0.0003817200000000138,
320.20000000000005,3.602133684,-0.00038144000000001196,
320.30000000000007,3.602095568,-0.0003811600000000101,
320.4000000000001,3.60205748,-0.00038088000000000824,
320.5000000000001,3.60201942,-0.0003806000000000064,
320.60000000000014,3.601981388,-0.0003803200000000045,
320.70000000000016,3.601943384,-0.00038004000000000266,
320.8000000000002,3.601905408,-0.0003797600000000008,
320.9000000000002,3.60186746,-0.00037947999999999893,
321.0000000000002,3.6018295399999998,-0.0003791999999999971,
321.10000000000025,3.601791648,-0.0003789199999999952,
321.2000000000003,3.601753784,-0.00037863999999999335,
321.3000000000003,3.601715948,-0.0003783599999999915,
321.4000000000003,3.6016781399999998,-0.00037807999999998963,
321.50000000000034,3.6016403599999998,-0.00037779999999998777,
321.60000000000036,3.601602608,-0.0003775199999999859,
321.7000000000004,3.601564884,-0.00037723999999998405,
321.8000000000004,3.601527188,-0.0003769599999999822,
321.90000000000043,3.60148952,-0.0003766799999999803,
322.00000000000045,3.60145188,-0.00037639999999997847,
322.1000000000005,3.601414268,-0.0003761199999999766,
322.2000000000005,3.601376684,-0.00037583999999997474,
322.3000000000005,3.601339128,-0.0003755599999999729,
322.40000000000055,3.6013015999999998,-0.000375279999999971,
322.50000000000057,3.6012641,-0.00037499999999996916,
322.6000000000006,3.601226628,-0.0003747199999999673,
322.7000000000006,3.601189184,-0.00037443999999996544,
322.80000000000064,3.601151768,-0.0003741599999999636,
322.90000000000066,3.60111438,-0.0003738799999999617,
323.0000000000007,3.60107702,-0.00037359999999995986,
323.1000000000007,3.601039688,-0.000373319999999958,
323.2000000000007,3.601002384,-0.00037303999999995614,
323.30000000000075,3.600965108,-0.0003727599999999543,
323.4000000000008,3.60092786,-0.0003724799999999524,
323.5000000000008,3.6008906400000003,-0.00037219999999995055,
323.6000000000008,3.600853448,-0.0003719199999999487,
323.70000000000084,3.600816284,-0.00037163999999994683,
323.80000000000086,3.600779148,-0.00037135999999994497,
323.9000000000009,3.60074204,-0.0003710799999999431,
324.0000000000009,3.6007049600000003,-0.00037079999999994125,
324.10000000000093,3.600667908,-0.0003705199999999394,
324.20000000000095,3.600630884,-0.00037023999999993753,
324.300000000001,3.600593888,-0.00036995999999993567,
324.400000000001,3.6005569200000003,-0.0003696799999999338,
324.500000000001,3.60051998,-0.00036939999999993195,
324.60000000000105,3.600483068,-0.0003691199999999301,
324.70000000000107,3.600446184,-0.0003688399999999282,
324.8000000000011,3.600409328,-0.00036855999999992636,
324.9000000000011,3.6003725,-0.0003682799999999245,
325.00000000000114,3.6003357,-0.00036799999999992264,
325.10000000000116,3.600298928,-0.0003677199999999208,
325.2000000000012,3.600262184,-0.0003674399999999189,
325.3000000000012,3.600225468,-0.00036715999999991706,
325.4000000000012,3.6001887800000003,-0.0003668799999999152,
325.50000000000125,3.60015212,-0.00036659999999991334,
325.6000000000013,3.600115488,-0.0003663199999999115,
325.7000000000013,3.600078884,-0.0003660399999999096,
325.8000000000013,3.6000423080000004,-0.00036575999999990776,
325.90000000000134,3.60000576,-0.0003654799999999059,
326.00000000000136,3.59996924,-0.00036519999999990403,
326.1000000000014,3.599932748,-0.0003649199999999022,
326.2000000000014,3.599896284,-0.0003646399999999003,
326.30000000000143,3.5998598480000004,-0.00036435999999989845,
326.40000000000146,3.59982344,-0.0003640799999998966,
326.5000000000015,3.59978706,-0.00036379999999989473,
326.6000000000015,3.599750708,-0.00036351999999989287,
326.7000000000015,3.5997143840000003,-0.000363239999999891,
326.80000000000155,3.5996780880000006,-0.00036295999999988915,
326.90000000000157,3.5996418200000004,-0.0003626799999998873,
327.0000000000016,3.5996055800000004,-0.0003623999999998854,
327.1000000000016,3.5995693680000005,-0.00036211999999988357,
327.20000000000164,3.5995331840000007,-0.0003618399999998817,
327.30000000000166,3.5994970280000005,-0.00036155999999987984,
327.4000000000017,3.5994609000000004,-0.000361279999999878,
327.5000000000017,3.5994248000000004,-0.0003609999999998761,
327.6000000000017,3.5993887280000005,-0.00036071999999987426,
327.70000000000175,3.5993526840000007,-0.0003604399999998724,
327.8000000000018,3.5993166680000006,-0.00036015999999987054,
327.9000000000018,3.5992806800000006,-0.0003598799999998687,
328.0000000000018,3.5992447200000006,-0.0003595999999998668,
328.10000000000184,3.5992087880000008,-0.00035931999999986496,
328.20000000000186,3.5991728840000006,-0.0003590399999998631,
328.3000000000019,3.5991370080000005,-0.00035875999999986124,
328.4000000000019,3.5991011600000005,-0.0003584799999998594,
328.50000000000193,3.5990653400000006,-0.0003581999999998575,
328.60000000000196,3.5990295480000007,-0.00035791999999985565,
328.700000000002,3.5989937840000006,-0.0003576399999998538,
328.800000000002,3.5989580480000005,-0.00035735999999985193,
328.900000000002,3.5989223400000006,-0.00035707999999985007,
329.00000000000205,3.5988866600000007,-0.0003567999999998482,
329.10000000000207,3.598851008000001,-0.00035651999999984635,
329.2000000000021,3.598815384000001,-0.0003562399999998445,
329.3000000000021,3.5987797880000008,-0.00035595999999984263,
329.40000000000214,3.598744220000001,-0.00035567999999984077,
329.50000000000216,3.598708680000001,-0.0003553999999998389,
329.6000000000022,3.598673168000001,-0.00035511999999983705,
329.7000000000022,3.5986376840000007,-0.0003548399999998352,
329.8000000000022,3.5986022280000007,-0.0003545599999998333,
329.90000000000225,3.598566800000001,-0.00035427999999983146,
330.0000000000023,3.598531400000001,-0.0003539999999998296,
330.1000000000023,3.598496028000001,-0.00035371999999982774,
330.2000000000023,3.598460684000001,-0.0003534399999998259,
330.30000000000234,3.598425368000001,-0.000353159999999824,
330.40000000000236,3.598390080000001,-0.00035287999999982216,
330.5000000000024,3.598354820000001,-0.0003525999999998203,
330.6000000000024,3.5983195880000007,-0.00035231999999981844,
330.70000000000243,3.5982843840000007,-0.0003520399999998166,
330.80000000000246,3.598249208000001,-0.0003517599999998147,
330.9000000000025,3.598214060000001,-0.00035147999999981286,
331.0000000000025,3.598178940000001,-0.000351199999999811,
331.1000000000025,3.5981438480000008,-0.00035091999999980913,
331.20000000000255,3.598108784000001,-0.0003506399999998073,
331.30000000000257,3.598073748000001,-0.0003503599999998054,
331.4000000000026,3.598038740000001,-0.00035007999999980355,
331.5000000000026,3.598003760000001,-0.0003497999999998017,
331.60000000000264,3.597968808000001,-0.00034951999999979983,
331.70000000000266,3.597933884000001,-0.00034923999999979797,
331.8000000000027,3.597898988000001,-0.0003489599999997961,
331.9000000000027,3.597864120000001,-0.00034867999999979425,
332.00000000000273,3.597829280000001,-0.0003483999999997924,
332.10000000000275,3.597794468000001,-0.0003481199999997905,
332.2000000000028,3.597759684000001,-0.00034783999999978867,
332.3000000000028,3.597724928000001,-0.0003475599999997868,
332.4000000000028,3.597690200000001,-0.00034727999999978494,
332.50000000000284,3.597655500000001,-0.0003469999999997831,
332.60000000000286,3.597620828000001,-0.0003467199999997812,
332.7000000000029,3.597586184000001,-0.00034643999999977936,
332.8000000000029,3.5975515680000014,-0.0003461599999997775,
332.90000000000293,3.5975169800000013,-0.00034587999999977564,
333.00000000000296,3.5974824200000013,-0.0003455999999997738,
333.100000000003,3.5974478880000014,-0.0003453199999997719,
333.200000000003,3.5974133840000015,-0.00034503999999977006,
333.300000000003,3.5973789080000014,-0.0003447599999997682,
333.40000000000305,3.5973444600000013,-0.00034447999999976634,
333.50000000000307,3.5973100400000013,-0.0003441999999997645,
333.6000000000031,3.5972756480000014,-0.0003439199999997626,
333.7000000000031,3.5972412840000016,-0.00034363999999976075,
333.80000000000314,3.5972069480000015,-0.0003433599999997589,
333.90000000000316,3.5971726400000015,-0.00034307999999975703,
334.0000000000032,3.5971383600000015,-0.00034279999999975517,
334.1000000000032,3.5971041080000017,-0.0003425199999997533,
334.20000000000323,3.5970698840000015,-0.00034223999999975145,
334.30000000000325,3.5970356880000014,-0.0003419599999997496,
334.4000000000033,3.5970015200000014,-0.00034167999999974773,
334.5000000000033,3.5969673800000015,-0.00034139999999974587,
334.6000000000033,3.5969332680000017,-0.000341119999999744,
334.70000000000334,3.5968991840000015,-0.00034083999999974215,
334.80000000000337,3.5968651280000015,-0.0003405599999997403,
334.9000000000034,3.5968311000000015,-0.0003402799999997384,
335.0000000000034,3.5967971000000016,-0.00033999999999973656,
335.10000000000343,3.596763128000002,-0.0003397199999997347,
335.20000000000346,3.5967291840000017,-0.00033943999999973284,
335.3000000000035,3.5966952680000017,-0.000339159999999731,
335.4000000000035,3.596661380000002,-0.0003388799999997291,
335.5000000000035,3.596627520000002,-0.00033859999999972726,
335.60000000000355,3.596593688000002,-0.0003383199999997254,
335.70000000000357,3.5965598840000017,-0.00033803999999972354,
335.8000000000036,3.5965261080000017,-0.0003377599999997217,
335.9000000000036,3.596492360000002,-0.0003374799999997198,
336.00000000000364,3.596458640000002,-0.00033719999999971796,
336.10000000000366,3.596424948000002,-0.0003369199999997161,
336.2000000000037,3.596391284000002,-0.00033663999999971423,
336.3000000000037,3.596357648000002,-0.0003363599999997124,
336.40000000000373,3.596324040000002,-0.0003360799999997105,
336.50000000000375,3.5962904600000023,-0.00033579999999970865,
336.6000000000038,3.596256908000002,-0.0003355199999997068,
336.7000000000038,3.596223384000002,-0.00033523999999970493,
336.8000000000038,3.5961898880000023,-0.00033495999999970307,
336.90000000000384,3.5961564200000025,-0.0003346799999997012,
337.00000000000387,3.5961229800000023,-0.00033439999999969935,
337.1000000000039,3.5960895680000022,-0.0003341199999996975,
337.2000000000039,3.5960561840000023,-0.0003338399999996956,
337.30000000000393,3.5960228280000024,-0.00033355999999969377,
337.40000000000396,3.5959895000000026,-0.0003332799999996919,
337.500000000004,3.5959562000000025,-0.00033299999999969004,
337.600000000004,3.5959229280000025,-0.0003327199999996882,
337.700000000004,3.5958896840000025,-0.0003324399999996863,
337.80000000000405,3.5958564680000027,-0.00033215999999968446,
337.90000000000407,3.5958232800000025,-0.0003318799999996826,
338.0000000000041,3.5957901200000024,-0.00033159999999968074,
338.1000000000041,3.5957569880000024,-0.0003313199999996789,
338.20000000000414,3.5957238840000025,-0.000331039999999677,
338.30000000000416,3.5956908080000027,-0.00033075999999967516,
338.4000000000042,3.5956577600000026,-0.0003304799999996733,
338.5000000000042,3.5956247400000025,-0.00033019999999967144,
338.60000000000423,3.5955917480000026,-0.0003299199999996696,
338.70000000000425,3.5955587840000027,-0.0003296399999996677,
338.8000000000043,3.595525848000003,-0.00032935999999966585,
338.9000000000043,3.595492940000003,-0.000329079999999664,
339.0000000000043,3.595460060000003,-0.00032879999999966213,
339.10000000000434,3.595427208000003,-0.00032851999999966027,
339.20000000000437,3.595394384000003,-0.0003282399999996584,
339.3000000000044,3.595361588000003,-0.00032795999999965655,
339.4000000000044,3.595328820000003,-0.0003276799999996547,
339.50000000000443,3.595296080000003,-0.00032739999999965283,
339.60000000000446,3.595263368000003,-0.00032711999999965097,
339.7000000000045,3.5952306840000032,-0.0003268399999996491,
339.8000000000045,3.595198028000003,-0.00032655999999964725,
339.9000000000045,3.595165400000003,-0.0003262799999996454,
340.00000000000455,3.595132800000003,-0.0003259999999996435,
340.10000000000457,3.5951002280000033,-0.00032571999999964166,
340.2000000000046,3.5950676840000035,-0.0003254399999996398,
340.3000000000046,3.5950351680000034,-0.00032515999999963794,
340.40000000000464,3.5950026800000034,-0.0003248799999996361,
340.50000000000466,3.5949702200000035,-0.0003245999999996342,
340.6000000000047,3.5949377880000037,-0.00032431999999963236,
340.7000000000047,3.5949053840000036,-0.0003240399999996305,
340.80000000000473,3.5948730080000035,-0.00032375999999962864,
340.90000000000475,3.5948406600000036,-0.0003234799999996268,
341.0000000000048,3.5948083400000037,-0.0003231999999996249,
341.1000000000048,3.594776048000004,-0.00032291999999962306,
341.2000000000048,3.594743784000004,-0.0003226399999996212,
341.30000000000484,3.594711548000004,-0.00032235999999961933,
341.40000000000487,3.594679340000004,-0.00032207999999961747,
341.5000000000049,3.594647160000004,-0.0003217999999996156,
341.6000000000049,3.594615008000004,-0.00032151999999961375,
341.70000000000493,3.594582884000004,-0.0003212399999996119,
341.80000000000496,3.594550788000004,-0.00032095999999961003,
341.900000000005,3.594518720000004,-0.00032067999999960817,
342.000000000005,3.594486680000004,-0.0003203999999996063,
342.100000000005,3.594454668000004,-0.00032011999999960445,
342.20000000000505,3.594422684000004,-0.0003198399999996026,
342.30000000000507,3.594390728000004,-0.0003195599999996007,
342.4000000000051,3.594358800000004,-0.00031927999999959886,
342.5000000000051,3.5943269000000044,-0.000318999999999597,
342.60000000000514,3.5942950280000043,-0.00031871999999959514,
342.70000000000516,3.5942631840000043,-0.0003184399999995933,
342.8000000000052,3.5942313680000044,-0.0003181599999995914,
342.9000000000052,3.5941995800000046,-0.00031787999999958956,
343.00000000000523,3.5941678200000045,-0.0003175999999995877,
343.10000000000525,3.5941360880000044,-0.00031731999999958584,
343.2000000000053,3.5941043840000044,-0.000317039999999584,
343.3000000000053,3.5940727080000046,-0.0003167599999995821,
343.4000000000053,3.594041060000005,-0.00031647999999958026,
343.50000000000534,3.5940094400000047,-0.0003161999999995784,
343.60000000000537,3.5939778480000046,-0.00031591999999957654,
343.7000000000054,3.5939462840000047,-0.0003156399999995747,
343.8000000000054,3.593914748000005,-0.0003153599999995728,
343.90000000000543,3.593883240000005,-0.00031507999999957095,
344.00000000000546,3.593851760000005,-0.0003147999999995691,
344.1000000000055,3.593820308000005,-0.00031451999999956723,
344.2000000000055,3.593788884000005,-0.00031423999999956537,
344.3000000000055,3.5937574880000054,-0.0003139599999995635,
344.40000000000555,3.5937261200000052,-0.00031367999999956165,
344.50000000000557,3.593694780000005,-0.0003133999999995598,
344.6000000000056,3.5936634680000052,-0.00031311999999955793,
344.7000000000056,3.5936321840000054,-0.00031283999999955607,
344.80000000000564,3.5936009280000056,-0.0003125599999995542,
344.90000000000566,3.5935697000000055,-0.00031227999999955234,
345.0000000000057,3.5935385000000055,-0.0003119999999995505,
345.1000000000057,3.5935073280000056,-0.0003117199999995486,
345.20000000000573,3.593476184000006,-0.00031143999999954676,
345.30000000000575,3.5934450680000056,-0.0003111599999995449,
345.4000000000058,3.5934139800000056,-0.00031087999999954304,
345.5000000000058,3.5933829200000056,-0.0003105999999995412,
345.6000000000058,3.5933518880000057,-0.0003103199999995393,
345.70000000000584,3.593320884000006,-0.00031003999999953746,
345.80000000000587,3.593289908000006,-0.0003097599999995356,
345.9000000000059,3.5932589600000058,-0.00030947999999953374,
346.0000000000059,3.593228040000006,-0.0003091999999995319,
346.10000000000593,3.593197148000006,-0.00030891999999953,
346.20000000000596,3.5931662840000063,-0.00030863999999952815,
346.300000000006,3.593135448000006,-0.0003083599999995263,
346.400000000006,3.593104640000006,-0.00030807999999952443,
346.500000000006,3.5930738600000063,-0.00030779999999952257,
346.60000000000605,3.5930431080000065,-0.0003075199999995207,
346.70000000000607,3.5930123840000063,-0.00030723999999951885,
346.8000000000061,3.5929816880000063,-0.000306959999999517,
346.9000000000061,3.5929510200000063,-0.00030667999999951513,
347.00000000000614,3.5929203800000065,-0.00030639999999951327,
347.10000000000616,3.5928897680000067,-0.0003061199999995114,
347.2000000000062,3.5928591840000066,-0.00030583999999950955,
347.3000000000062,3.5928286280000066,-0.0003055599999995077,
347.40000000000623,3.5927981000000067,-0.0003052799999995058,
347.50000000000625,3.592767600000007,-0.00030499999999950396,
347.6000000000063,3.5927371280000067,-0.0003047199999995021,
347.7000000000063,3.5927066840000066,-0.00030443999999950024,
347.8000000000063,3.5926762680000066,-0.0003041599999994984,
